Time,Flow_LPM,Pressure,Volume,Exp_Vol,Pleth
14:27:53.800,5.15,0,150,0,0
14:27:53.810,5.14,0,150,0,0
14:27:53.820,5.1,0,150,0,0
14:27:53.830,5.08,0,150,0,0
14:27:53.840,5.08,0,150,0,0
14:27:53.850,5.08,0,150,0,0
14:27:53.860,5.14,0,150,0,0
14:27:53.870,5.17,0,150,0,0
14:27:53.880,5.18,0,150,0,0
14:27:53.890,5.17,0,150,0,0
14:27:53.900,5.16,0,150,0,0
14:27:53.910,5.12,0,150,0,0
14:27:53.920,5.16,0,150,0,0
14:27:53.930,5.13,0,150,0,0
14:27:53.940,5.11,0,150,0,0
14:27:53.950,5.12,0,150,0,0
14:27:53.960,5.11,0,150,0,0
14:27:53.970,5.08,0,150,0,0
14:27:53.980,5.09,0,150,0,0
14:27:53.990,5.18,0,150,0,0
14:27:54.000,5.2,0,150,0,0
14:27:54.010,5.17,0,150,0,0
14:27:54.020,5.06,0,150,0,0
14:27:54.030,5.04,0,150,0,0
14:27:54.040,5.13,0,150,0,0
14:27:54.050,5.2,0,150,0,0
14:27:54.060,5.13,0,150,0,0
14:27:54.070,5.1,0,150,0,0
14:27:54.080,5.15,0,150,0,0
14:27:54.090,5.19,0,150,0,0
14:27:54.100,5.17,0,150,0,0
14:27:54.110,5.15,0,150,0,0
14:27:54.120,5.12,0,150,0,0
14:27:54.130,5.15,0,150,0,0
14:27:54.140,5.17,0,150,0,0
14:27:54.150,5.09,0,150,0,0
14:27:54.160,5.05,0,150,0,0
14:27:54.170,5.15,0,150,0,0
14:27:54.180,5.19,0,150,0,0
14:27:54.190,5.1,0,150,0,0
14:27:54.200,5.07,0,150,0,0
14:27:54.210,5.13,0,150,0,0
14:27:54.220,5.22,0,150,0,0
14:27:54.230,5.18,0,150,0,0
14:27:54.240,5.09,0,150,0,0
14:27:54.250,5.08,0,150,0,0
14:27:54.260,5.09,0,150,0,0
14:27:54.270,5.19,0,150,0,0
14:27:54.280,5.24,0,150,0,0
14:27:54.290,5.1,0,150,0,0
14:27:54.300,5.04,0,150,0,0
14:27:54.310,5.12,0,150,0,0
14:27:54.320,5.14,0,150,0,0
14:27:54.330,5.14,0,150,0,0
14:27:54.340,5.12,0,150,0,0
14:27:54.350,5.14,0,150,0,0
14:27:54.360,5.11,0,150,0,0
14:27:54.370,5.13,0,150,0,0
14:27:54.380,5.17,0,150,0,0
14:27:54.390,5.08,0,150,0,0
14:27:54.400,5.06,0,150,0,0
14:27:54.410,5.07,0,150,0,0
14:27:54.420,5.14,0,150,0,0
14:27:54.430,5.17,0,150,0,0
14:27:54.440,5.13,0,150,0,0
14:27:54.450,5.09,0,150,0,0
14:27:54.460,5.05,0,150,0,0
14:27:54.470,5.04,0,150,0,0
14:27:54.480,5.09,0,150,0,0
14:27:54.490,5.18,0,150,0,0
14:27:54.500,5.18,0,150,0,0
14:27:54.510,5.17,0,150,0,0
14:27:54.520,5.09,0,150,0,0
14:27:54.530,5.1,0,150,0,0
14:27:54.540,5.13,0,150,0,0
14:27:54.550,5.18,0,150,0,0
14:27:54.560,5.14,0,150,0,0
14:27:54.570,5.05,0,150,0,0
14:27:54.580,5.11,0,150,0,0
14:27:54.590,5.2,0,150,0,0
14:27:54.600,5.16,0,150,0,0
14:27:54.610,5.08,0,150,0,0
14:27:54.620,5.06,0,150,0,0
14:27:54.630,5.14,0,150,0,0
14:27:54.640,5.15,0,150,0,0
14:27:54.650,5.08,0,150,0,0
14:27:54.660,5.14,0,150,0,0
14:27:54.670,5.11,0,150,0,0
14:27:54.680,5.06,0,150,0,0
14:27:54.690,5.11,0,150,0,0
14:27:54.700,5.21,0,150,0,0
14:27:54.710,5.09,0,150,0,0
14:27:54.720,5.02,0,150,0,0
14:27:54.730,5.05,0,150,0,0
14:27:54.740,5.08,0,150,0,0
14:27:54.750,5.12,0,150,0,0
14:27:54.760,5.16,0,150,0,0
14:27:54.770,5.19,0,150,0,0
14:27:54.780,5.13,0,150,0,0
14:27:54.790,5.12,0,150,0,0
14:27:54.800,5.14,0,150,0,0
14:27:54.740,5.15,0,150,0,0
14:27:54.750,5.16,0,150,0,0
14:27:54.760,5.11,0,150,0,0
14:27:54.770,5.09,0,150,0,0
14:27:54.780,5.13,0,150,0,0
14:27:54.790,5.15,0,150,0,0
14:27:54.800,5.18,0,150,0,0
14:27:54.810,5.1,0,150,0,0
14:27:54.820,5.04,0,150,0,0
14:27:54.830,5.12,0,150,0,0
14:27:54.840,5.21,0,150,0,0
14:27:54.850,5.2,0,150,0,0
14:27:54.860,5.15,0,150,0,0
14:27:54.870,5.12,0,150,0,0
14:27:54.880,5.14,0,150,0,0
14:27:54.890,5.15,0,150,0,0
14:27:54.900,5.15,0,150,0,0
14:27:54.910,5.1,0,150,0,0
14:27:54.920,5.09,0,150,0,0
14:27:54.930,5.12,0,150,0,0
14:27:54.940,5.1,0,150,0,0
14:27:54.950,5.11,0,150,0,0
14:27:54.960,5.12,0,150,0,0
14:27:54.970,5.12,0,150,0,0
14:27:54.980,5.09,0,150,0,0
14:27:54.990,5.08,0,150,0,0
14:27:55.000,5.12,0,150,0,0
14:27:55.010,5.14,0,150,0,0
14:27:55.020,5.21,0,150,0,0
14:27:55.030,5.19,0,150,0,0
14:27:55.040,5.08,0,150,0,0
14:27:55.050,5.08,0,150,0,0
14:27:55.060,5.14,0,150,0,0
14:27:55.070,5.18,0,150,0,0
14:27:55.080,5.18,0,150,0,0
14:27:55.090,5.13,0,150,0,0
14:27:55.100,5.08,0,150,0,0
14:27:55.110,5.08,0,150,0,0
14:27:55.120,5.18,0,150,0,0
14:27:55.130,5.21,0,150,0,0
14:27:55.140,5.15,0,150,0,0
14:27:55.150,5.09,0,150,0,0
14:27:55.160,5.1,0,150,0,0
14:27:55.170,5.16,0,150,0,0
14:27:55.180,5.18,0,150,0,0
14:27:55.190,5.14,0,150,0,0
14:27:55.200,5.12,0,150,0,0
14:27:55.210,5.15,0,150,0,0
14:27:55.220,5.14,0,150,0,0
14:27:55.230,5.09,0,150,0,0
14:27:55.240,5.09,0,150,0,0
14:27:55.250,5.18,0,150,0,0
14:27:55.260,5.15,0,150,0,0
14:27:55.270,5.11,0,150,0,0
14:27:55.280,5.16,0,150,0,0
14:27:55.290,5.15,0,150,0,0
14:27:55.300,5.16,0,150,0,0
14:27:55.310,5.15,0,150,0,0
14:27:55.320,5.09,0,150,0,0
14:27:55.330,5.1,0,150,0,0
14:27:55.340,5.16,0,150,0,0
14:27:55.350,5.13,0,150,0,0
14:27:55.360,5.16,0,150,0,0
14:27:55.370,5.19,0,150,0,0
14:27:55.380,5.12,0,150,0,0
14:27:55.390,5.1,0,150,0,0
14:27:55.400,5.16,0,150,0,0
14:27:55.410,5.13,0,150,0,0
14:27:55.420,5.09,0,150,0,0
14:27:55.430,5.12,0,150,0,0
14:27:55.440,5.11,0,150,0,0
14:27:55.450,5.1,0,150,0,0
14:27:55.460,5.11,0,150,0,0
14:27:55.470,5.08,0,150,0,0
14:27:55.480,5.08,0,150,0,0
14:27:55.490,5.17,0,150,0,0
14:27:55.500,5.16,0,150,0,0
14:27:55.510,5.16,0,150,0,0
14:27:55.520,5.13,0,150,0,0
14:27:55.530,5.11,0,150,0,0
14:27:55.540,5.15,0,150,0,0
14:27:55.550,5.19,0,150,0,0
14:27:55.560,5.19,0,150,0,0
14:27:55.570,5.15,0,150,0,0
14:27:55.580,5.09,0,150,0,0
14:27:55.590,5.08,0,150,0,0
14:27:55.600,5.16,0,150,0,0
14:27:55.610,5.18,0,150,0,0
14:27:55.620,5.1,0,150,0,0
14:27:55.630,5.01,0,150,0,0
14:27:55.640,5.14,0,150,0,0
14:27:55.650,5.14,0,150,0,0
14:27:55.660,5.12,0,150,0,0
14:27:55.670,5.2,0,150,0,0
14:27:55.680,5.18,0,150,0,0
14:27:55.690,5.12,0,150,0,0
14:27:55.700,5.1,0,150,0,0
14:27:55.710,5.13,0,150,0,0
14:27:55.720,5.16,0,150,0,0
14:27:55.730,5.13,0,150,0,0
14:27:55.740,5.09,0,150,0,0
14:27:55.700,5.1,0,150,0,0
14:27:55.710,5.11,0,150,0,0
14:27:55.720,5.08,0,150,0,0
14:27:55.730,5.06,0,150,0,0
14:27:55.740,5.13,0,150,0,0
14:27:55.750,5.2,0,150,0,0
14:27:55.760,5.19,0,150,0,0
14:27:55.770,5.15,0,150,0,0
14:27:55.780,5.15,0,150,0,0
14:27:55.790,5.19,0,150,0,0
14:27:55.800,5.19,0,150,0,0
14:27:55.810,5.17,0,150,0,0
14:27:55.820,5.15,0,150,0,0
14:27:55.830,5.14,0,150,0,0
14:27:55.840,5.11,0,150,0,0
14:27:55.850,5.13,0,150,0,0
14:27:55.860,5.13,0,150,0,0
14:27:55.870,5.15,0,150,0,0
14:27:55.880,5.15,0,150,0,0
14:27:55.890,5.09,0,150,0,0
14:27:55.900,5.13,0,150,0,0
14:27:55.910,5.18,0,150,0,0
14:27:55.920,5.14,0,150,0,0
14:27:55.930,5.13,0,150,0,0
14:27:55.940,5.09,0,150,0,0
14:27:55.950,5.03,0,150,0,0
14:27:55.960,5.11,0,150,0,0
14:27:55.970,5.19,0,150,0,0
14:27:55.980,5.16,0,150,0,0
14:27:55.990,5.1,0,150,0,0
14:27:56.000,5.06,0,150,0,0
14:27:56.010,5.09,0,150,0,0
14:27:56.020,5.11,0,150,0,0
14:27:56.030,5.13,0,150,0,0
14:27:56.040,5.12,0,150,0,0
14:27:56.050,5.16,0,150,0,0
14:27:56.060,5.19,0,150,0,0
14:27:56.070,5.14,0,150,0,0
14:27:56.080,5.13,0,150,0,0
14:27:56.090,5.07,0,150,0,0
14:27:56.100,5.1,0,150,0,0
14:27:56.110,5.14,0,150,0,0
14:27:56.120,5.19,0,150,0,0
14:27:56.130,5.14,0,150,0,0
14:27:56.140,5.05,0,150,0,0
14:27:56.150,5.17,0,150,0,0
14:27:56.160,5.21,0,150,0,0
14:27:56.170,5.2,0,150,0,0
14:27:56.180,5.16,0,150,0,0
14:27:56.190,5.14,0,150,0,0
14:27:56.200,5.15,0,150,0,0
14:27:56.210,5.19,0,150,0,0
14:27:56.220,5.19,0,150,0,0
14:27:56.230,5.12,0,150,0,0
14:27:56.240,5.1,0,150,0,0
14:27:56.250,5.12,0,150,0,0
14:27:56.260,5.14,0,150,0,0
14:27:56.270,5.12,0,150,0,0
14:27:56.280,5.1,0,150,0,0
14:27:56.290,5.12,0,150,0,0
14:27:56.300,5.15,0,150,0,0
14:27:56.310,5.18,0,150,0,0
14:27:56.320,5.15,0,150,0,0
14:27:56.330,5.12,0,150,0,0
14:27:56.340,5.14,0,150,0,0
14:27:56.350,5.18,0,150,0,0
14:27:56.360,5.16,0,150,0,0
14:27:56.370,5.19,0,150,0,0
14:27:56.380,5.18,0,150,0,0
14:27:56.390,5.15,0,150,0,0
14:27:56.400,5.18,0,150,0,0
14:27:56.410,5.18,0,150,0,0
14:27:56.420,5.15,0,150,0,0
14:27:56.430,5.16,0,150,0,0
14:27:56.440,5.18,0,150,0,0
14:27:56.450,5.13,0,150,0,0
14:27:56.460,5.06,0,150,0,0
14:27:56.470,5.08,0,150,0,0
14:27:56.480,5.13,0,150,0,0
14:27:56.490,5.15,0,150,0,0
14:27:56.500,5.09,0,150,0,0
14:27:56.510,5.07,0,150,0,0
14:27:56.520,5.14,0,150,0,0
14:27:56.530,5.17,0,150,0,0
14:27:56.540,5.13,0,150,0,0
14:27:56.550,5.12,0,150,0,0
14:27:56.560,5.15,0,150,0,0
14:27:56.570,5.1,0,150,0,0
14:27:56.580,5.09,0,150,0,0
14:27:56.590,5.16,0,150,0,0
14:27:56.600,5.13,0,150,0,0
14:27:56.610,5.12,0,150,0,0
14:27:56.620,5.17,0,150,0,0
14:27:56.630,5.18,0,150,0,0
14:27:56.640,5.12,0,150,0,0
14:27:56.650,5.05,0,150,0,0
14:27:56.660,5.08,0,150,0,0
14:27:56.670,5.09,0,150,0,0
14:27:56.680,5.12,0,150,0,0
14:27:56.690,5.13,0,150,0,0
14:27:56.700,5.08,0,150,0,0
14:27:56.750,5.16,0,150,0,0
14:27:56.760,5.14,0,150,0,0
14:27:56.770,5.11,0,150,0,0
14:27:56.780,5.17,0,150,0,0
14:27:56.790,5.16,0,150,0,0
14:27:56.800,5.17,0,150,0,0
14:27:56.810,5.17,0,150,0,0
14:27:56.820,5.12,0,150,0,0
14:27:56.830,5.11,0,150,0,0
14:27:56.840,5.15,0,150,0,0
14:27:56.850,5.18,0,150,0,0
14:27:56.860,5.15,0,150,0,0
14:27:56.870,5.17,0,150,0,0
14:27:56.880,5.18,0,150,0,0
14:27:56.890,5.14,0,150,0,0
14:27:56.900,5.18,0,150,0,0
14:27:56.910,5.18,0,150,0,0
14:27:56.920,5.14,0,150,0,0
14:27:56.930,5.18,0,150,0,0
14:27:56.940,5.11,0,150,0,0
14:27:56.950,5.08,0,150,0,0
14:27:56.960,5.14,0,150,0,0
14:27:56.970,5.14,0,150,0,0
14:27:56.980,5.12,0,150,0,0
14:27:56.990,5.2,0,150,0,0
14:27:57.000,5.21,0,150,0,0
14:27:57.010,5.15,0,150,0,0
14:27:57.020,5.09,0,150,0,0
14:27:57.030,5.06,0,150,0,0
14:27:57.040,5.12,0,150,0,0
14:27:57.050,5.15,0,150,0,0
14:27:57.060,5.1,0,150,0,0
14:27:57.070,5.07,0,150,0,0
14:27:57.080,5.16,0,150,0,0
14:27:57.090,5.19,0,150,0,0
14:27:57.100,5.14,0,150,0,0
14:27:57.110,5,0,150,0,0
14:27:57.120,5.08,0,150,0,0
14:27:57.130,5.25,0,150,0,0
14:27:57.140,5.23,0,150,0,0
14:27:57.150,5.14,0,150,0,0
14:27:57.160,5.12,0,150,0,0
14:27:57.170,5.14,0,150,0,0
14:27:57.180,5.12,0,150,0,0
14:27:57.190,5.11,0,150,0,0
14:27:57.200,5.12,0,150,0,0
14:27:57.210,5.11,0,150,0,0
14:27:57.220,5.08,0,150,0,0
14:27:57.230,5.13,0,150,0,0
14:27:57.240,5.15,0,150,0,0
14:27:57.250,5.12,0,150,0,0
14:27:57.260,5.17,0,150,0,0
14:27:57.270,5.15,0,150,0,0
14:27:57.280,5.15,0,150,0,0
14:27:57.290,5.14,0,150,0,0
14:27:57.300,5.14,0,150,0,0
14:27:57.310,5.15,0,150,0,0
14:27:57.320,5.13,0,150,0,0
14:27:57.330,5.12,0,150,0,0
14:27:57.340,5.13,0,150,0,0
14:27:57.350,5.17,0,150,0,0
14:27:57.360,5.18,0,150,0,0
14:27:57.370,5.17,0,150,0,0
14:27:57.380,5.13,0,150,0,0
14:27:57.390,5.12,0,150,0,0
14:27:57.400,5.17,0,150,0,0
14:27:57.410,5.18,0,150,0,0
14:27:57.420,5.15,0,150,0,0
14:27:57.430,5.16,0,150,0,0
14:27:57.440,5.17,0,150,0,0
14:27:57.450,5.16,0,150,0,0
14:27:57.460,5.14,0,150,0,0
14:27:57.470,5.12,0,150,0,0
14:27:57.480,5.11,0,150,0,0
14:27:57.490,5.16,0,150,0,0
14:27:57.500,5.17,0,150,0,0
14:27:57.510,5.12,0,150,0,0
14:27:57.520,5.06,0,150,0,0
14:27:57.530,5.06,0,150,0,0
14:27:57.540,5.13,0,150,0,0
14:27:57.550,5.17,0,150,0,0
14:27:57.560,5.13,0,150,0,0
14:27:57.570,5.1,0,150,0,0
14:27:57.580,5.13,0,150,0,0
14:27:57.590,5.15,0,150,0,0
14:27:57.600,5.12,0,150,0,0
14:27:57.610,5.12,0,150,0,0
14:27:57.620,5.13,0,150,0,0
14:27:57.630,5.11,0,150,0,0
14:27:57.640,5.08,0,150,0,0
14:27:57.650,5.07,0,150,0,0
14:27:57.660,5.08,0,150,0,0
14:27:57.670,5.1,0,150,0,0
14:27:57.680,5.09,0,150,0,0
14:27:57.690,5.14,0,150,0,0
14:27:57.700,5.18,0,150,0,0
14:27:57.710,5.19,0,150,0,0
14:27:57.720,5.15,0,150,0,0
14:27:57.730,5.13,0,150,0,0
14:27:57.740,5.16,0,150,0,0
14:27:57.750,5.14,0,150,0,0
14:27:57.740,5.12,0,150,0,0
14:27:57.750,5.18,0,150,0,0
14:27:57.760,5.16,0,150,0,0
14:27:57.770,5.1,0,150,0,0
14:27:57.780,5.14,0,150,0,0
14:27:57.790,5.13,0,150,0,0
14:27:57.800,5.09,0,150,0,0
14:27:57.810,5.11,0,150,0,0
14:27:57.820,5.12,0,150,0,0
14:27:57.830,5.1,0,150,0,0
14:27:57.840,5.1,0,150,0,0
14:27:57.850,5.1,0,150,0,0
14:27:57.860,5.17,0,150,0,0
14:27:57.870,5.16,0,150,0,0
14:27:57.880,5.05,0,150,0,0
14:27:57.890,5.08,0,150,0,0
14:27:57.900,5.16,0,150,0,0
14:27:57.910,5.06,0,150,0,0
14:27:57.920,5.01,0,150,0,0
14:27:57.930,5.12,0,150,0,0
14:27:57.940,5.2,0,150,0,0
14:27:57.950,5.11,0,150,0,0
14:27:57.960,5.1,0,150,0,0
14:27:57.970,5.17,0,150,0,0
14:27:57.980,5.18,0,150,0,0
14:27:57.990,5.12,0,150,0,0
14:27:58.000,5.08,0,150,0,0
14:27:58.010,5.11,0,150,0,0
14:27:58.020,5.12,0,150,0,0
14:27:58.030,5.16,0,150,0,0
14:27:58.040,5.07,0,150,0,0
14:27:58.050,5.12,0,150,0,0
14:27:58.060,5.21,0,150,0,0
14:27:58.070,5.17,0,150,0,0
14:27:58.080,5.07,0,150,0,0
14:27:58.090,5.11,0,150,0,0
14:27:58.100,5.19,0,150,0,0
14:27:58.110,5.18,0,150,0,0
14:27:58.120,5.12,0,150,0,0
14:27:58.130,5.13,0,150,0,0
14:27:58.140,5.08,0,150,0,0
14:27:58.150,5.12,0,150,0,0
14:27:58.160,5.17,0,150,0,0
14:27:58.170,5.15,0,150,0,0
14:27:58.180,5.13,0,150,0,0
14:27:58.190,5.14,0,150,0,0
14:27:58.200,5.13,0,150,0,0
14:27:58.210,5.11,0,150,0,0
14:27:58.220,5.18,0,150,0,0
14:27:58.230,5.18,0,150,0,0
14:27:58.240,5.15,0,150,0,0
14:27:58.250,5.22,0,150,0,0
14:27:58.260,5.28,0,150,0,0
14:27:58.270,5.27,0,150,0,0
14:27:58.280,5.21,0,150,0,0
14:27:58.290,5.12,0,150,0,0
14:27:58.300,5.08,0,150,0,0
14:27:58.310,5.07,0,150,0,0
14:27:58.320,5.14,0,150,0,0
14:27:58.330,5.2,0,150,0,0
14:27:58.340,5.15,0,150,0,0
14:27:58.350,5.18,0,150,0,0
14:27:58.360,5.17,0,150,0,0
14:27:58.370,5.07,0,150,0,0
14:27:58.380,5.09,0,150,0,0
14:27:58.390,5.16,0,150,0,0
14:27:58.400,5.2,0,150,0,0
14:27:58.410,5.13,0,150,0,0
14:27:58.420,5.13,0,150,0,0
14:27:58.430,5.2,0,150,0,0
14:27:58.440,5.2,0,150,0,0
14:27:58.450,5.12,0,150,0,0
14:27:58.460,5.12,0,150,0,0
14:27:58.470,5.14,0,150,0,0
14:27:58.480,5.22,0,150,0,0
14:27:58.490,5.14,0,150,0,0
14:27:58.500,5.12,0,150,0,0
14:27:58.510,5.2,0,150,0,0
14:27:58.520,5.18,0,150,0,0
14:27:58.530,5.12,0,150,0,0
14:27:58.540,5.13,0,150,0,0
14:27:58.550,5.17,0,150,0,0
14:27:58.560,5.14,0,150,0,0
14:27:58.570,5.08,0,150,0,0
14:27:58.580,5.13,0,150,0,0
14:27:58.590,5.22,0,150,0,0
14:27:58.600,5.24,0,150,0,0
14:27:58.610,5.17,0,150,0,0
14:27:58.620,5.11,0,150,0,0
14:27:58.630,5.08,0,150,0,0
14:27:58.640,5.1,0,150,0,0
14:27:58.650,5.17,0,150,0,0
14:27:58.660,5.16,0,150,0,0
14:27:58.670,5.14,0,150,0,0
14:27:58.680,5.12,0,150,0,0
14:27:58.690,5.17,0,150,0,0
14:27:58.700,5.17,0,150,0,0
14:27:58.710,5.1,0,150,0,0
14:27:58.720,5.04,0,150,0,0
14:27:58.730,5.01,0,150,0,0
14:27:58.740,5.04,0,150,0,0
14:27:58.730,5.11,0,150,0,0
14:27:58.740,5.14,0,150,0,0
14:27:58.750,5.11,0,150,0,0
14:27:58.760,5.12,0,150,0,0
14:27:58.770,5.08,0,150,0,0
14:27:58.780,5.11,0,150,0,0
14:27:58.790,5.1,0,150,0,0
14:27:58.800,5.09,0,150,0,0
14:27:58.810,5.15,0,150,0,0
14:27:58.820,5.19,0,150,0,0
14:27:58.830,5.14,0,150,0,0
14:27:58.840,5.12,0,150,0,0
14:27:58.850,5.13,0,150,0,0
14:27:58.860,5.17,0,150,0,0
14:27:58.870,5.12,0,150,0,0
14:27:58.880,5.09,0,150,0,0
14:27:58.890,5.14,0,150,0,0
14:27:58.900,5.23,0,150,0,0
14:27:58.910,5.2,0,150,0,0
14:27:58.920,5.11,0,150,0,0
14:27:58.930,5.06,0,150,0,0
14:27:58.940,5.09,0,150,0,0
14:27:58.950,5.12,0,150,0,0
14:27:58.960,5.08,0,150,0,0
14:27:58.970,5.05,0,150,0,0
14:27:58.980,5.09,0,150,0,0
14:27:58.990,5.15,0,150,0,0
14:27:59.000,5.12,0,150,0,0
14:27:59.010,5.08,0,150,0,0
14:27:59.020,5.03,0,150,0,0
14:27:59.030,5.03,0,150,0,0
14:27:59.040,5.04,0,150,0,0
14:27:59.050,5.12,0,150,0,0
14:27:59.060,5.17,0,150,0,0
14:27:59.070,5.08,0,150,0,0
14:27:59.080,4.97,0,150,0,0
14:27:59.090,4.97,0,150,0,0
14:27:59.100,5.07,0,150,0,0
14:27:59.110,5.17,0,150,0,0
14:27:59.120,5.16,0,150,0,0
14:27:59.130,5.08,0,150,0,0
14:27:59.140,5.05,0,150,0,0
14:27:59.150,5.09,0,150,0,0
14:27:59.160,5.1,0,150,0,0
14:27:59.170,5.09,0,150,0,0
14:27:59.180,5.09,0,150,0,0
14:27:59.190,5.08,0,150,0,0
14:27:59.200,5.08,0,150,0,0
14:27:59.210,5.09,0,150,0,0
14:27:59.220,5.07,0,150,0,0
14:27:59.230,5.16,0,150,0,0
14:27:59.240,5.21,0,150,0,0
14:27:59.250,5.07,0,150,0,0
14:27:59.260,5.04,0,150,0,0
14:27:59.270,5.11,0,150,0,0
14:27:59.280,5.1,0,150,0,0
14:27:59.290,5.09,0,150,0,0
14:27:59.300,5.09,0,150,0,0
14:27:59.310,5.12,0,150,0,0
14:27:59.320,5.11,0,150,0,0
14:27:59.330,5.09,0,150,0,0
14:27:59.340,5.06,0,150,0,0
14:27:59.350,5.05,0,150,0,0
14:27:59.360,5.1,0,150,0,0
14:27:59.370,5.08,0,150,0,0
14:27:59.380,5.07,0,150,0,0
14:27:59.390,5.05,0,150,0,0
14:27:59.400,5.09,0,150,0,0
14:27:59.410,5.16,0,150,0,0
14:27:59.420,5.13,0,150,0,0
14:27:59.430,5.07,0,150,0,0
14:27:59.440,5.08,0,150,0,0
14:27:59.450,5.11,0,150,0,0
14:27:59.460,5.11,0,150,0,0
14:27:59.470,5.1,0,150,0,0
14:27:59.480,5.08,0,150,0,0
14:27:59.490,5.06,0,150,0,0
14:27:59.500,5.13,0,150,0,0
14:27:59.510,5.22,0,150,0,0
14:27:59.520,5.14,0,150,0,0
14:27:59.530,5.09,0,150,0,0
14:27:59.540,5.09,0,150,0,0
14:27:59.550,5.11,0,150,0,0
14:27:59.560,5.13,0,150,0,0
14:27:59.570,5.16,0,150,0,0
14:27:59.580,5.08,0,150,0,0
14:27:59.590,5.06,0,150,0,0
14:27:59.600,5.11,0,150,0,0
14:27:59.610,5.11,0,150,0,0
14:27:59.620,5.1,0,150,0,0
14:27:59.630,5.12,0,150,0,0
14:27:59.640,5.05,0,150,0,0
14:27:59.650,5.04,0,150,0,0
14:27:59.660,5.08,0,150,0,0
14:27:59.670,5.17,0,150,0,0
14:27:59.680,5.24,0,150,0,0
14:27:59.690,5.12,0,150,0,0
14:27:59.700,5.02,0,150,0,0
14:27:59.710,5.03,0,150,0,0
14:27:59.720,5.07,0,150,0,0
14:27:59.730,5.11,0,150,0,0
14:27:59.820,5.06,0,150,0,0
14:27:59.830,5.01,0,150,0,0
14:27:59.840,4.97,0,150,0,0
14:27:59.850,5.07,0,150,0,0
14:27:59.860,5.11,0,150,0,0
14:27:59.870,5.14,0,150,0,0
14:27:59.880,5.14,0,150,0,0
14:27:59.890,5.12,0,150,0,0
14:27:59.900,5.19,0,150,0,0
14:27:59.910,5.2,0,150,0,0
14:27:59.920,5.15,0,150,0,0
14:27:59.930,5.15,0,150,0,0
14:27:59.940,5.18,0,150,0,0
14:27:59.950,5.12,0,150,0,0
14:27:59.960,5.04,0,150,0,0
14:27:59.970,5.08,0,150,0,0
14:27:59.980,5.15,0,150,0,0
14:27:59.990,5.1,0,150,0,0
14:28:00.000,5.06,0,150,0,0
14:28:00.010,5.12,0,150,0,0
14:28:00.020,5.18,0,150,0,0
14:28:00.030,5.26,0,150,0,0
14:28:00.040,5.22,0,150,0,0
14:28:00.050,5.2,0,150,0,0
14:28:00.060,5.24,0,150,0,0
14:28:00.070,5.2,0,150,0,0
14:28:00.080,5.13,0,150,0,0
14:28:00.090,5.05,0,150,0,0
14:28:00.100,5.04,0,150,0,0
14:28:00.110,5.07,0,150,0,0
14:28:00.120,5.04,0,150,0,0
14:28:00.130,5.02,0,150,0,0
14:28:00.140,5.03,0,150,0,0
14:28:00.150,5.06,0,150,0,0
14:28:00.160,5.05,0,150,0,0
14:28:00.170,5.06,0,150,0,0
14:28:00.180,5.07,0,150,0,0
14:28:00.190,5.06,0,150,0,0
14:28:00.200,5.07,0,150,0,0
14:28:00.210,5.11,0,150,0,0
14:28:00.220,5.17,0,150,0,0
14:28:00.230,5.18,0,150,0,0
14:28:00.240,5.17,0,150,0,0
14:28:00.250,5.11,0,150,0,0
14:28:00.260,5.08,0,150,0,0
14:28:00.270,5.08,0,150,0,0
14:28:00.280,5.05,0,150,0,0
14:28:00.290,5.01,0,150,0,0
14:28:00.300,4.92,0,150,0,0
14:28:00.310,4.76,0.1,150,0,0
14:28:00.320,4.55,0.3,150,0,0
14:28:00.330,4.43,0.3,150,0,0
14:28:00.340,4.51,0.3,150,0,0
14:28:00.350,4.87,0.1,150,0,0
14:28:00.360,5.26,0,150,0,0
14:28:00.370,5.35,-0.1,150,0,0
14:28:00.380,5.25,-0.1,150,0,0
14:28:00.390,5.21,0,150,0,0
14:28:00.400,5.19,0,150,0,0
14:28:00.410,5.01,0,150,0,0
14:28:00.420,5.08,0,150,0,0
14:28:00.430,5.12,0,150,0,0
14:28:00.440,5.06,0,150,0,0
14:28:00.450,5.05,0,150,0,0
14:28:00.460,5.08,0,150,0,0
14:28:00.470,5.02,0,150,0,0
14:28:00.480,5.02,0,150,0,0
14:28:00.490,5.06,0,150,0,0
14:28:00.500,5.03,0,150,0,0
14:28:00.510,5.02,0,150,0,0
14:28:00.520,4.91,0,150,0,0
14:28:00.530,4.83,0.1,150,0,0
14:28:00.540,4.87,0.1,150,0,0
14:28:00.550,4.9,0.1,150,0,0
14:28:00.560,4.93,0,150,0,0
14:28:00.570,4.98,0,150,0,0
14:28:00.580,4.94,0,150,0,0
14:28:00.590,4.87,0.1,150,0,0
14:28:00.600,4.84,0.1,150,0,0
14:28:00.610,4.71,0.2,150,0,0
14:28:00.620,4.48,0.3,150,0,0
14:28:00.630,4.48,0.3,150,0,0
14:28:00.640,4.33,0.4,150,0,0
14:28:00.650,4.06,0.6,150,0,0
14:28:00.660,4.1,0.6,150,0,0
14:28:00.670,4.25,0.5,150,0,0
14:28:00.680,4.6,0.3,150,0,0
14:28:00.690,5.04,0.1,150,0,0
14:28:00.700,5.18,0,150,0,0
14:28:00.710,5.08,0,150,0,0
14:28:00.720,5.01,0,150,0,0
14:28:00.730,5.04,0,150,0,0
14:28:00.740,4.87,0.1,150,0,0
14:28:00.750,4.35,0.3,150,0,0
14:28:00.760,3.99,0.6,150,0,0
14:28:00.770,4.32,0.6,150,0,0
14:28:00.780,4.09,0.6,150,0,0
14:28:00.790,3.52,0.8,150,0,0
14:28:00.800,3.34,1,150,0,0
14:28:00.810,2.83,1.4,150,0,0
14:28:00.820,2.58,1.6,150,0,0
14:28:00.800,3.22,1.4,150,0,0
14:28:00.810,3.46,1.1,150,0,0
14:28:00.820,3.4,1,150,0,0
14:28:00.830,3.61,1,150,0,0
14:28:00.840,3.79,0.8,150,0,0
14:28:00.850,3.92,0.7,150,0,0
14:28:00.860,4.14,0.6,150,0,0
14:28:00.870,4.45,0.4,150,0,0
14:28:00.880,4.65,0.3,150,0,0
14:28:00.890,4.64,0.2,150,0,0
14:28:00.900,4.59,0.2,150,0,0
14:28:00.910,4.65,0.3,150,0,0
14:28:00.920,4.64,0.3,150,0,0
14:28:00.930,4.54,0.3,150,0,0
14:28:00.940,4.55,0.3,150,0,0
14:28:00.950,4.63,0.3,150,0,0
14:28:00.960,4.72,0.2,150,0,0
14:28:00.970,4.82,0.2,150,0,0
14:28:00.980,4.88,0.1,150,0,0
14:28:00.990,4.63,0.2,150,0,0
14:28:01.000,4.01,0.5,150,0,0
14:28:01.010,3.88,0.7,150,0,0
14:28:01.020,4.01,0.6,150,0,0
14:28:01.030,3.84,0.7,150,0,0
14:28:01.040,3.65,0.8,150,0,0
14:28:01.050,3.78,0.9,150,0,0
14:28:01.060,3.87,0.8,150,0,0
14:28:01.070,3.55,0.9,150,0,0
14:28:01.080,3.18,1,150,0,0
14:28:01.090,3.3,1.1,150,0,0
14:28:01.100,3.64,1,150,0,0
14:28:01.110,3.72,1,150,0,0
14:28:01.120,3.47,1,150,0,0
14:28:01.130,3.4,1,150,0,0
14:28:01.140,3.66,1,150,0,0
14:28:01.150,3.68,1,150,0,0
14:28:01.160,3.38,1.1,150,0,0
14:28:01.170,3.23,1.2,150,0,0
14:28:01.180,2.94,1.3,150,0,0
14:28:01.190,2.64,1.5,150,0,0
14:28:01.200,2.82,1.5,150,0,0
14:28:01.210,2.98,1.4,150,0,0
14:28:01.220,2.83,1.5,150,0,0
14:28:01.230,2.93,1.5,150,0,0
14:28:01.240,3.18,1.3,150,0,0
14:28:01.250,3.3,1.2,150,0,0
14:28:01.260,3.28,1.1,150,0,0
14:28:01.270,3.26,1.2,150,0,0
14:28:01.280,3.08,1.3,150,0,0
14:28:01.290,2.71,1.5,150,0,0
14:28:01.300,2.43,1.6,150,0,0
14:28:01.310,2.42,1.8,150,0,0
14:28:01.320,2.37,1.9,150,0,0
14:28:01.330,2.11,2,150,0,0
14:28:01.340,2,2.1,150,0,0
14:28:01.350,1.99,2.1,150,0,0
14:28:01.360,1.88,2.2,150,0,0
14:28:01.370,1.86,2.3,150,0,0
14:28:01.380,2.02,2.3,150,0,0
14:28:01.390,1.98,2.2,150,0,0
14:28:01.400,1.85,2.3,150,0,0
14:28:01.410,1.77,2.4,150,0,0
14:28:01.420,1.63,2.5,150,0,0
14:28:01.430,1.2,2.6,150,0,0
14:28:01.440,0.38,3,150,0,0
14:28:01.450,-0.55,3.4,150,0,0
14:28:01.460,-0.74,3.9,150,0,0
14:28:01.470,-0.73,4.2,150,0,0
14:28:01.480,-1.22,4.6,150,0,0
14:28:01.490,-1.64,5.1,150,0,0
14:28:01.500,-1.48,5.4,150,0,0
14:28:01.510,-0.95,5.3,150,0,0
14:28:01.520,0.13,4.9,150,0,0
14:28:01.530,-0.5,4.7,150,0,0
14:28:01.540,-0.89,4.7,150,0,0
14:28:01.550,-0.62,4.7,150,0,0
14:28:01.560,-0.35,4.6,150,0,0
14:28:01.570,-0.34,4.5,150,0,0
14:28:01.580,-0.47,4.5,150,0,0
14:28:01.590,-0.39,4.5,150,0,0
14:28:01.600,-0.27,4.5,150,0,0
14:28:01.610,-0.34,4.5,150,0,0
14:28:01.620,-0.44,4.5,150,0,0
14:28:01.630,-0.54,4.5,150,0,0
14:28:01.640,-0.61,4.5,150,0,0
14:28:01.650,-0.75,4.6,150,0,0
14:28:01.660,-0.93,4.8,150,0,0
14:28:01.670,-0.99,4.9,150,0,0
14:28:01.680,-0.99,5,150,0,0
14:28:01.690,-0.97,5,150,0,0
14:28:01.700,-0.99,5,150,0,0
14:28:01.710,-0.97,5,150,0,0
14:28:01.720,-0.87,4.9,150,0,0
14:28:01.730,-0.76,4.9,150,0,0
14:28:01.740,-0.58,4.8,150,0,0
14:28:01.750,-0.57,4.7,150,0,0
14:28:01.760,-0.45,4.6,150,0,0
14:28:01.770,-0.3,4.6,150,0,0
14:28:01.780,-0.28,4.5,150,0,0
14:28:01.790,0,4.4,150,0,0
14:28:01.800,0.16,4.3,150,0,0
14:28:01.760,0.21,4.2,150,0,0
14:28:01.770,0.15,4.1,150,0,0
14:28:01.780,0,4.1,150,0,0
14:28:01.790,-0.19,4.1,150,0,0
14:28:01.800,-0.25,4.1,150,0,0
14:28:01.810,-0.33,4.2,150,0,0
14:28:01.820,-0.55,4.3,150,0,0
14:28:01.830,-0.42,4.4,150,0,0
14:28:01.840,-0.19,4.4,150,0,0
14:28:01.850,-0.31,4.4,150,0,0
14:28:01.860,-0.3,4.3,150,0,0
14:28:01.870,-0.31,4.3,150,0,0
14:28:01.880,-0.18,4.3,150,0,0
14:28:01.890,-0.19,4.2,150,0,0
14:28:01.900,-0.4,4.3,150,0,0
14:28:01.910,-0.36,4.3,150,0,0
14:28:01.920,-0.33,4.4,150,0,0
14:28:01.930,-0.45,4.4,150,0,0
14:28:01.940,-0.5,4.5,150,0,0
14:28:01.950,-0.51,4.5,150,0,0
14:28:01.960,-0.42,4.5,150,0,0
14:28:01.970,-0.41,4.5,150,0,0
14:28:01.980,-0.41,4.5,150,0,0
14:28:01.990,-0.27,4.5,150,0,0
14:28:02.000,-0.19,4.4,150,0,0
14:28:02.010,-0.18,4.4,150,0,0
14:28:02.020,-0.08,4.3,150,0,0
14:28:02.030,-0.08,4.2,150,0,0
14:28:02.040,0,4.2,150,0,0
14:28:02.050,0,4.2,150,0,0
14:28:02.060,-0.2,4.1,150,0,0
14:28:02.070,-0.3,4.1,150,0,0
14:28:02.080,-0.13,4.1,150,0,0
14:28:02.090,0,4.1,150,0,0
14:28:02.100,0,4.1,150,0,0
14:28:02.110,0,4.1,150,0,0
14:28:02.120,0,4.1,150,0,0
14:28:02.130,0.34,4,150,0,0
14:28:02.140,0.26,3.9,150,0,0
14:28:02.150,0.38,3.9,150,0,0
14:28:02.160,0.69,3.8,0.2,0,0
14:28:02.170,0.85,3.6,0.3,0,0
14:28:02.180,0.86,3.4,0.4,0,0
14:28:02.190,0.89,3.3,0.6,0,0
14:28:02.200,0.91,3.3,0.7,0,0
14:28:02.210,1,3.2,0.9,0,0
14:28:02.220,1.01,3.2,1.1,0,0
14:28:02.230,1.09,3.1,1.2,0,0
14:28:02.240,1.48,3,1.5,0,0
14:28:02.250,2.07,2.6,1.7,0,0
14:28:02.260,2.46,2.2,2.1,0,0
14:28:02.270,2.83,1.8,2.6,0,0
14:28:02.280,3.22,1.5,3.1,0,0
14:28:02.290,3.75,1.1,3.6,0,0
14:28:02.300,4.1,0.8,4.3,0,0
14:28:02.310,4.15,0.6,5,0,0
14:28:02.320,4.14,0.6,5.7,0,0
14:28:02.330,4.37,0.5,6.4,0,0
14:28:02.340,4.32,0.5,7.1,0,0
14:28:02.350,4.08,0.6,7.8,0,0
14:28:02.360,3.99,0.6,8.5,0,0
14:28:02.370,3.83,0.7,9.1,0,0
14:28:02.380,3.74,0.9,9.8,0,0
14:28:02.390,3.54,1,10.4,0,0
14:28:02.400,2.95,1.2,10.9,0,0
14:28:02.410,2.22,1.6,11.4,0,0
14:28:02.420,1.28,2.1,11.7,0,0
14:28:02.430,-0.83,2.9,11.7,0,0
14:28:02.440,-1.52,3.9,11.5,0,0
14:28:02.450,-1.88,4.9,11.2,0,0
14:28:02.460,-2.82,6,10.8,0,0
14:28:02.470,-3.26,6.8,10.3,0,0
14:28:02.480,-2.15,6.6,9.8,0,0
14:28:02.490,-2.06,6.3,9.5,0,0
14:28:02.500,-2.69,6.5,9.1,0,0
14:28:02.510,-2.36,6.6,8.6,0,0
14:28:02.520,-1.72,6.3,8.3,0,0
14:28:02.530,-1.58,6,8,0,0
14:28:02.540,-1.41,5.8,7.8,0,0
14:28:02.550,-0.87,5.6,7.6,0,0
14:28:02.560,-0.74,5.3,7.5,0,0
14:28:02.570,-0.75,5,7.3,0,0
14:28:02.580,-0.71,4.9,7.2,0,0
14:28:02.590,-0.51,4.8,7.1,0,0
14:28:02.600,-0.21,4.7,7.1,0,0
14:28:02.610,-0.56,4.6,7,0,0
14:28:02.620,-0.59,4.6,6.9,0,0
14:28:02.630,-0.37,4.6,6.8,0,0
14:28:02.640,-0.29,4.5,6.8,0,0
14:28:02.650,-0.13,4.5,6.7,0,0
14:28:02.660,0,4.4,6.7,0,0
14:28:02.670,-0.31,4.3,6.7,0,0
14:28:02.680,-0.25,4.3,6.7,0,0
14:28:02.690,-0.23,4.3,6.6,0,0
14:28:02.700,-0.16,4.3,6.6,0,0
14:28:02.710,0,4.3,6.6,0,0
14:28:02.720,0,4.3,6.6,0,0
14:28:02.730,-0.17,4.3,6.6,0,0
14:28:02.740,-0.16,4.3,6.6,0,0
14:28:02.750,-0.1,4.3,6.6,0,0
14:28:02.760,-0.14,4.2,6.6,0,0
14:28:02.850,-0.15,4.2,6.6,0,0
14:28:02.860,0,4.2,6.6,0,0
14:28:02.870,0,4.2,6.6,0,0
14:28:02.880,0,4.1,6.6,0,0
14:28:02.890,-0.18,4.2,6.6,0,0
14:28:02.900,-0.31,4.2,6.6,0,0
14:28:02.910,-0.34,4.2,6.5,0,0
14:28:02.920,-0.28,4.3,6.5,0,0
14:28:02.930,-0.23,4.3,6.4,0,0
14:28:02.940,-0.15,4.3,6.4,0,0
14:28:02.950,-0.13,4.3,6.4,0,0
14:28:02.960,0,4.3,6.4,0,0
14:28:02.970,0,4.2,6.4,0,0
14:28:02.980,0,4.2,6.4,0,0
14:28:02.990,0,4.2,6.4,0,0
14:28:03.000,-0.22,4.2,6.4,0,0
14:28:03.010,-0.22,4.2,6.3,0,0
14:28:03.020,0.97,4.7,0,0,0
14:28:03.030,2.86,5.6,0.3,0,0
14:28:03.040,4.22,6.6,0.9,0,0
14:28:03.050,5.26,7.7,1.7,0,0
14:28:03.060,6.39,8.7,2.7,0,0
14:28:03.070,7.12,9.7,3.8,0,0
14:28:03.080,7.21,10.4,5,0,0
14:28:03.090,7.02,11.2,6.2,0,0
14:28:03.100,6.96,12,7.4,0,0
14:28:03.110,7.03,12.8,8.5,0,0
14:28:03.120,7.02,13.6,9.7,0,0
14:28:03.130,7.04,14.4,10.9,0,0
14:28:03.140,7.01,15.1,12.1,0,0
14:28:03.150,6.96,15.9,13.2,0,0
14:28:03.160,6.95,16.6,14.4,0,0
14:28:03.170,6.95,17.3,15.5,0,0
14:28:03.180,6.93,18.1,16.7,0,0
14:28:03.190,7.01,18.9,17.9,0,0
14:28:03.200,7.09,19.6,19,0,0
14:28:03.210,7.03,20.4,20.2,0,0
14:28:03.220,6.94,21.1,21.4,0,0
14:28:03.230,6.9,21.9,22.5,0,0
14:28:03.240,6.94,22.6,23.7,0,0
14:28:03.250,7,23.3,24.8,0,0
14:28:03.260,7.01,24,26,0,0
14:28:03.270,7.04,24.8,27.2,0,0
14:28:03.280,6.97,25.6,28.3,0,0
14:28:03.290,6.89,26.3,29.5,0,0
14:28:03.300,6.89,27,30.6,0,0
14:28:03.310,6.9,27.7,31.8,0,0
14:28:03.320,6.97,28.4,32.9,0,0
14:28:03.330,6.87,29.1,34.1,0,0
14:28:03.340,6.37,29.6,35.2,0,0
14:28:03.350,5.78,29.9,36.2,0,0
14:28:03.360,5.15,30.3,37.1,0,0
14:28:03.370,4.6,30.6,37.9,0,0
14:28:03.380,4.03,30.8,38.7,0,0
14:28:03.390,3.38,31,39.3,0,0
14:28:03.400,2.73,31.2,39.8,0,0
14:28:03.410,2.33,31.3,40.2,0,0
14:28:03.420,1.93,31.3,40.6,0,0
14:28:03.430,0,0,0,0,0
14:28:03.440,0,0,0,0,0
14:28:03.450,0,0,0,0,0
14:28:03.460,0,0,0,0,0
14:28:03.470,0,0,0,0,0
14:28:03.480,0,0,0,0,0
14:28:03.490,0,0,0,0,0
14:28:03.500,0,0,0,0,0
14:28:03.510,0,0,0,0,0
14:28:03.520,0,0,0,0,0
14:28:03.530,0,0,0,0,0
14:28:03.540,0,0,0,0,0
14:28:03.550,0,0,0,0,0
14:28:03.560,0,0,0,0,0
14:28:03.570,0,0,0,0,0
14:28:03.580,0,0,0,0,0
14:28:03.590,0,0,0,0,0
14:28:03.600,0,0,0,0,0
14:28:03.610,0,0,0,0,0
14:28:03.620,0,0,0,0,0
14:28:03.630,0,0,0,0,0
14:28:03.640,0,0,0,0,0
14:28:03.650,0,0,0,0,0
14:28:03.660,0,0,0,0,0
14:28:03.670,0,0,0,0,0
14:28:03.680,0,0,0,0,0
14:28:03.690,0,0,0,0,0
14:28:03.700,0,0,0,0,0
14:28:03.710,0,0,0,0,0
14:28:03.720,0,0,0,0,0
14:28:03.730,0,0,0,0,0
14:28:03.740,0,0,0,0,0
14:28:03.750,0,0,0,0,0
14:28:03.760,0,0,0,0,0
14:28:03.770,0,0,0,0,0
14:28:03.780,0,0,0,0,0
14:28:03.790,0,0,0,0,0
14:28:03.800,0,0,0,0,0
14:28:03.810,0,0,0,0,0
14:28:03.820,0,0,0,0,0
14:28:03.830,0,0,0,0,0
14:28:03.840,0,0,0,0,0
14:28:03.850,0,0,0,0,0
14:28:03.800,0,0,0,0,0
14:28:03.810,0,0,0,0,0
14:28:03.820,0,0,0,0,0
14:28:03.830,0,0,0,0,0
14:28:03.840,0,0,0,0,0
14:28:03.850,0,0,0,0,0
14:28:03.860,0,0,0,0,0
14:28:03.870,0,0,0,0,0
14:28:03.880,0,0,0,0,0
14:28:03.890,0,0,0,0,0
14:28:03.900,0,0,0,0,0
14:28:03.910,0,0,0,0,0
14:28:03.920,0,0,0,0,0
14:28:03.930,0,0,0,0,0
14:28:03.940,0,0,0,0,0
14:28:03.950,0,0,0,0,0
14:28:03.960,0,0,0,0,0
14:28:03.970,0,0,0,0,0
14:28:03.980,0,0,0,0,0
14:28:03.990,0,0,0,0,0
14:28:04.000,0,0,0,0,0
14:28:04.010,0,0,0,0,0
14:28:04.020,0,0,0,0,0
14:28:04.030,0,0,0,0,0
14:28:04.040,0,0,0,0,0
14:28:04.050,0,0,0,0,0
14:28:04.060,0,0,0,0,0
14:28:04.070,0,0,0,0,0
14:28:04.080,0,0,0,0,0
14:28:04.090,0,0,0,0,0
14:28:04.100,0,0,0,0,0
14:28:04.110,0,0,0,0,0
14:28:04.120,0,0,0,0,0
14:28:04.130,0,0,0,0,0
14:28:04.140,0,0,0,0,0
14:28:04.150,0,0,0,0,0
14:28:04.160,0,0,0,0,0
14:28:04.170,0,0,0,0,0
14:28:04.180,0,0,0,0,0
14:28:04.190,0,0,0,0,0
14:28:04.200,0,0,0,0,0
14:28:04.210,0,0,0,0,0
14:28:04.220,0,0,0,0,0
14:28:04.230,0,0,0,0,0
14:28:04.240,0,0,0,0,0
14:28:04.250,0,0,0,0,0
14:28:04.260,0,0,0,0,0
14:28:04.270,0,0,0,0,0
14:28:04.280,0,0,0,0,0
14:28:04.290,0,0,0,0,0
14:28:04.300,0,0,0,0,0
14:28:04.310,0,0,0,0,0
14:28:04.320,0,0,0,0,0
14:28:04.330,0,0,0,0,0
14:28:04.340,0,0,0,0,0
14:28:04.350,0,0,0,0,0
14:28:04.360,0,0,0,0,0
14:28:04.370,0,0,0,0,0
14:28:04.380,0,0,0,0,0
14:28:04.390,0,0,0,0,0
14:28:04.400,0,0,0,0,0
14:28:04.410,0,0,0,0,0
14:28:04.420,0,0,0,0,0
14:28:04.430,0,0,0,0,0
14:28:04.440,0,0,0,0,0
14:28:04.450,0,0,0,0,0
14:28:04.460,0,0,0,0,0
14:28:04.470,0,0,0,0,0
14:28:04.480,0,0,0,0,0
14:28:04.490,0,0,0,0,0
14:28:04.500,0,0,0,0,0
14:28:04.510,0,0,0,0,0
14:28:04.520,0,0,0,0,0
14:28:04.530,0,0,0,0,0
14:28:04.540,0,0,0,0,0
14:28:04.550,0,0,0,0,0
14:28:04.560,0,0,0,0,0
14:28:04.570,0,0,0,0,0
14:28:04.580,0,0,0,0,0
14:28:04.590,0,0,0,0,0
14:28:04.600,0,0,0,0,0
14:28:04.610,0,0,0,0,0
14:28:04.620,0,0,0,0,0
14:28:04.630,0,0,0,0,0
14:28:04.640,0,0,0,0,0
14:28:04.650,0,0,0,0,0
14:28:04.660,0,0,0,0,0
14:28:04.670,0,0,0,0,0
14:28:04.680,0,0,0,0,0
14:28:04.690,0,0,0,0,0
14:28:04.700,0,0,0,0,0
14:28:04.710,0,0,0,0,0
14:28:04.720,0,0,0,0,0
14:28:04.730,0,0,0,0,0
14:28:04.740,0,0,0,0,0
14:28:04.750,0,0,0,0,0
14:28:04.760,0,0,0,0,0
14:28:04.770,0,0,0,0,0
14:28:04.780,0,0,0,0,0
14:28:04.790,0,0,0,0,0
14:28:04.800,0,0,0,0,0
14:28:04.790,0,0,0,0,0
14:28:04.800,0,0,0,0,0
14:28:04.810,0,0,0,0,0
14:28:04.820,0,0,0,0,0
14:28:04.830,0,0,0,0,0
14:28:04.840,0,0,0,0,0
14:28:04.850,0,0,0,0,0
14:28:04.860,0,0,0,0,0
14:28:04.870,0,0,0,0,0
14:28:04.880,0,0,0,0,0
14:28:04.890,0,0,0,0,0
14:28:04.900,0,0,0,0,0
14:28:04.910,0,0,0,0,0
14:28:04.920,0,0,0,0,0
14:28:04.930,0,0,0,0,0
14:28:04.940,0,0,0,0,0
14:28:04.950,0,0,0,0,0
14:28:04.960,0,0,0,0,0
14:28:04.970,0,0,0,0,0
14:28:04.980,0,0,0,0,0
14:28:04.990,0,0,0,0,0
14:28:05.000,0,0,0,0,0
14:28:05.010,0,0,0,0,0
14:28:05.020,0,0,0,0,0
14:28:05.030,0,0,0,0,0
14:28:05.040,0,0,0,0,0
14:28:05.050,0,0,0,0,0
14:28:05.060,0,0,0,0,0
14:28:05.070,0,0,0,0,0
14:28:05.080,0,0,0,0,0
14:28:05.090,0,0,0,0,0
14:28:05.100,0,0,0,0,0
14:28:05.110,0,0,0,0,0
14:28:05.120,0,0,0,0,0
14:28:05.130,0,0,0,0,0
14:28:05.140,0,0,0,0,0
14:28:05.150,0,0,0,0,0
14:28:05.160,0,0,0,0,0
14:28:05.170,0,0,0,0,0
14:28:05.180,0,0,0,0,0
14:28:05.190,0,0,0,0,0
14:28:05.200,0,0,0,0,0
14:28:05.210,0,0,0,0,0
14:28:05.220,0,0,0,0,0
14:28:05.230,0,0,0,0,0
14:28:05.240,0,0,0,0,0
14:28:05.250,0,0,0,0,0
14:28:05.260,0,0,0,0,0
14:28:05.270,0,0,0,0,0
14:28:05.280,0,0,0,0,0
14:28:05.290,0,0,0,0,0
14:28:05.300,0,0,0,0,0
14:28:05.310,0,0,0,0,0
14:28:05.320,0,0,0,0,0
14:28:05.330,0,0,0,0,0
14:28:05.340,0,0,0,0,0
14:28:05.350,0,0,0,0,0
14:28:05.360,0,0,0,0,0
14:28:05.370,0,0,0,0,0
14:28:05.380,0,0,0,0,0
14:28:05.390,0,0,0,0,0
14:28:05.400,0,0,0,0,0
14:28:05.410,0,0,0,0,0
14:28:05.420,0,0,0,0,0
14:28:05.430,0,0,0,0,0
14:28:05.440,0,0,0,0,0
14:28:05.450,0,0,0,0,0
14:28:05.460,0,0,0,0,0
14:28:05.470,0,0,0,0,0
14:28:05.480,0,0,0,0,0
14:28:05.490,0,0,0,0,0
14:28:05.500,0,0,0,0,0
14:28:05.510,0,0,0,0,0
14:28:05.520,0,0,0,0,0
14:28:05.530,0,0,0,0,0
14:28:05.540,0,0,0,0,0
14:28:05.550,0,0,0,0,0
14:28:05.560,0,0,0,0,0
14:28:05.570,0,0,0,0,0
14:28:05.580,0,0,0,0,0
14:28:05.590,0,0,0,0,0
14:28:05.600,0,0,0,0,0
14:28:05.610,0,0,0,0,0
14:28:05.620,0,0,0,0,0
14:28:05.630,0,0,0,0,0
14:28:05.640,0,0,0,0,0
14:28:05.650,0,0,0,0,0
14:28:05.660,0,0,0,0,0
14:28:05.670,0,0,0,0,0
14:28:05.680,0,0,0,0,0
14:28:05.690,0,0,0,0,0
14:28:05.700,0,0,0,0,0
14:28:05.710,0,0,0,0,0
14:28:05.720,0,0,0,0,0
14:28:05.730,0,0,0,0,0
14:28:05.740,0,0,0,0,0
14:28:05.750,0,0,0,0,0
14:28:05.760,0,0,0,0,0
14:28:05.770,0,0,0,0,0
14:28:05.780,0,0,0,0,0
14:28:05.790,0,0,0,0,0
14:28:05.850,0,0,0,0,0
14:28:05.860,0,0,0,0,0
14:28:05.870,0,0,0,0,0
14:28:05.880,0,0,0,0,0
14:28:05.890,0,0,0,0,0
14:28:05.900,0,0,0,0,0
14:28:05.910,0,0,0,0,0
14:28:05.920,0,0,0,0,0
14:28:05.930,0,0,0,0,0
14:28:05.940,0,0,0,0,0
14:28:05.950,0,0,0,0,0
14:28:05.960,0,0,0,0,0
14:28:05.970,0,0,0,0,0
14:28:05.980,0,0,0,0,0
14:28:05.990,0,0,0,0,0
14:28:06.000,0,0,0,0,0
14:28:06.010,0,0,0,0,0
14:28:06.020,0,0,0,0,0
14:28:06.030,0,0,0,0,0
14:28:06.040,0,0,0,0,0
14:28:06.050,0,0,0,0,0
14:28:06.060,0,0,0,0,0
14:28:06.070,0,0,0,0,0
14:28:06.080,0,0,0,0,0
14:28:06.090,0,0,0,0,0
14:28:06.100,0,0,0,0,0
14:28:06.110,0,0,0,0,0
14:28:06.120,0,0,0,0,0
14:28:06.130,0,0,0,0,0
14:28:06.140,0,0,0,0,0
14:28:06.150,0,0,0,0,0
14:28:06.160,0,0,0,0,0
14:28:06.170,0,0,0,0,0
14:28:06.180,0,0,0,0,0
14:28:06.190,0,0,0,0,0
14:28:06.200,0,0,0,0,0
14:28:06.210,0,0,0,0,0
14:28:06.220,0,0,0,0,0
14:28:06.230,0,0,0,0,0
14:28:06.240,0,0,0,0,0
14:28:06.250,0,0,0,0,0
14:28:06.260,0,0,0,0,0
14:28:06.270,0,0,0,0,0
14:28:06.280,0,0,0,0,0
14:28:06.290,0,0,0,0,0
14:28:06.300,0,0,0,0,0
14:28:06.310,0,0,0,0,0
14:28:06.320,0,0,0,0,0
14:28:06.330,0,0,0,0,0
14:28:06.340,0,0,0,0,0
14:28:06.350,0,0,0,0,0
14:28:06.360,0,0,0,0,0
14:28:06.370,0,0,0,0,0
14:28:06.380,0,0,0,0,0
14:28:06.390,0,0,0,0,0
14:28:06.400,0,0,0,0,0
14:28:06.410,0,0,0,0,0
14:28:06.420,0,0,0,0,0
14:28:06.430,0,0,0,0,0
14:28:06.440,0,0,0,0,0
14:28:06.450,0,0,0,0,0
14:28:06.460,0,0,0,0,0
14:28:06.470,0,0,0,0,0
14:28:06.480,0,0,0,0,0
14:28:06.490,0,0,0,0,0
14:28:06.500,0,0,0,0,0
14:28:06.510,0,0,0,0,0
14:28:06.520,0,0,0,0,0
14:28:06.530,0,0,0,0,0
14:28:06.540,0,0,0,0,0
14:28:06.550,0,0,0,0,0
14:28:06.560,0,0,0,0,0
14:28:06.570,0,0,0,0,0
14:28:06.580,0,0,0,0,0
14:28:06.590,0,0,0,0,0
14:28:06.600,0,0,0,0,0
14:28:06.610,0,0,0,0,0
14:28:06.620,0,0,0,0,0
14:28:06.630,0,0,0,0,0
14:28:06.640,0,0,0,0,0
14:28:06.650,0,0,0,0,0
14:28:06.660,0,0,0,0,0
14:28:06.670,0,0,0,0,0
14:28:06.680,0,0,0,0,0
14:28:06.690,0,0,0,0,0
14:28:06.700,0,0,0,0,0
14:28:06.710,0,0,0,0,0
14:28:06.720,0,0,0,0,0
14:28:06.730,0,0,0,0,0
14:28:06.740,-1.14,5.2,0,0,0
14:28:06.750,-1.04,5.2,0,0,0
14:28:06.760,-0.97,5.2,0,0,0
14:28:06.770,-0.95,5.1,0,0,0
14:28:06.780,-0.92,5,0,0,0
14:28:06.790,-0.88,5,0,0,0
14:28:06.800,-0.83,4.9,0,0,0
14:28:06.810,-0.75,4.9,0,0,0
14:28:06.820,-0.73,4.8,0,0,0
14:28:06.830,-0.76,4.7,0,0,0
14:28:06.840,-0.7,4.7,0,0,0
14:28:06.850,-0.55,4.7,0,0,0
14:28:06.850,-0.44,4.7,0,0,0
14:28:06.860,-0.48,4.7,0,0,0
14:28:06.870,-0.48,4.7,0,0,0
14:28:06.880,-0.48,4.7,0,0,0
14:28:06.890,-0.45,4.7,0,0,0
14:28:06.900,-0.37,4.6,0,0,0
14:28:06.910,-0.35,4.6,0,0,0
14:28:06.920,-0.4,4.6,0,0,0
14:28:06.930,-0.49,4.5,0,0,0
14:28:06.940,-0.56,4.5,0,0,0
14:28:06.950,-0.48,4.5,0,0,0
14:28:06.960,-0.36,4.5,0,0,0
14:28:06.970,-0.35,4.5,0,0,0
14:28:06.980,-0.29,4.5,0,0,0
14:28:06.990,0,4.5,0,0,0
14:28:07.000,0.34,4.6,0,0,0
14:28:07.010,0.53,4.7,0,0,0
14:28:07.020,0.78,4.9,0,0,0
14:28:07.030,1.14,5.1,0,0,0
14:28:07.040,1.48,5.4,0,0,0
14:28:07.050,1.73,5.8,0,0,0
14:28:07.060,2,6.2,1.1,0,0
14:28:07.070,2.28,6.6,1.5,0,0
14:28:07.080,2.43,7,1.9,0,0
14:28:07.090,2.5,7.5,2.3,0,0
14:28:07.100,2.61,7.9,2.7,0,0
14:28:07.110,2.88,8.4,3.2,0,0
14:28:07.120,3.53,9,3.7,0,0
14:28:07.130,4.69,9.9,4.4,0,0
14:28:07.140,5.93,11,5.3,0,0
14:28:07.150,6.55,12,6.3,0,0
14:28:07.160,6.54,12.9,7.4,0,0
14:28:07.170,6.43,13.9,8.5,0,0
14:28:07.180,6.51,14.8,9.6,0,0
14:28:07.190,6.64,15.8,10.6,0,0
14:28:07.200,6.73,16.7,11.8,0,0
14:28:07.210,6.77,17.6,12.9,0,0
14:28:07.220,6.7,18.6,14,0,0
14:28:07.230,6.67,19.5,15.1,0,0
14:28:07.240,6.75,20.4,16.2,0,0
14:28:07.250,6.75,21.3,17.4,0,0
14:28:07.260,6.73,22.3,18.5,0,0
14:28:07.270,6.71,23.2,19.6,0,0
14:28:07.280,6.8,24.1,20.7,0,0
14:28:07.290,6.8,25,21.9,0,0
14:28:07.300,6.7,25.9,23,0,0
14:28:07.310,6.68,26.9,24.1,0,0
14:28:07.320,6.71,27.8,25.2,0,0
14:28:07.330,6.74,28.7,26.3,0,0
14:28:07.340,6.66,29.5,27.5,0,0
14:28:07.350,6,30.2,28.5,0,0
14:28:07.360,4.99,30.7,29.4,0,0
14:28:07.370,4.17,31,30.2,0,0
14:28:07.380,3.56,31.4,30.8,0,0
14:28:07.390,2.83,31.6,31.4,0,0
14:28:07.400,2.06,31.8,31.8,0,0
14:28:07.410,1.5,31.8,32.1,0,0
14:28:07.420,1.04,31.7,32.3,0,0
14:28:07.430,0.65,31.6,32.4,0,0
14:28:07.440,0.36,31.4,32.5,0,0
14:28:07.450,0.18,31.2,32.5,0,0
14:28:07.460,0.15,30.9,32.5,0,0
14:28:07.470,0.2,30.7,32.5,0,0
14:28:07.480,0.26,30.4,32.6,0,0
14:28:07.490,0.32,30.1,32.6,0,0
14:28:07.500,0.36,29.9,32.7,0,0
14:28:07.510,0.41,29.7,32.7,0,0
14:28:07.520,0.48,29.6,32.8,0,0
14:28:07.530,0.55,29.5,32.9,0,0
14:28:07.540,0.62,29.5,33,0,0
14:28:07.550,0.65,29.5,33.1,0,0
14:28:07.560,0.63,29.6,33.2,0,0
14:28:07.570,0.6,29.7,33.3,0,0
14:28:07.580,0.6,29.7,33.4,0,0
14:28:07.590,0.27,29.7,33.5,0,0
14:28:07.600,-1.64,29,33.3,0,0
14:28:07.610,-3.66,27.2,32.9,0,0
14:28:07.620,-5.48,24.7,32.1,1.2,0
14:28:07.630,-6.55,22.4,31.1,2.2,0
14:28:07.640,-6.72,20.5,30,3.3,0
14:28:07.650,-6.78,18.9,28.9,4.5,0
14:28:07.660,-7.34,17,27.7,5.6,0
14:28:07.670,-7.33,15.5,26.5,6.9,0
14:28:07.680,-6.63,14.5,25.3,8,0
14:28:07.690,-6.01,13.6,24.3,9.1,0
14:28:07.700,-5.72,12.8,23.3,10.1,0
14:28:07.710,-5.39,12,22.4,11,0
14:28:07.720,-4.96,11.3,21.5,11.8,0
14:28:07.730,-4.6,10.8,20.7,12.6,0
14:28:07.740,-4.39,10.3,20,13.4,0
14:28:07.750,-4.13,9.8,19.2,14.1,0
14:28:07.760,-3.83,9.4,18.6,14.8,0
14:28:07.770,-3.62,9,18,15.4,0
14:28:07.780,-3.51,8.7,17.4,16,0
14:28:07.790,-3.33,8.3,16.8,16.5,0
14:28:07.800,-3.11,8,16.3,17.1,0
14:28:07.810,-2.9,7.8,15.8,17.6,0
14:28:07.820,-2.72,7.6,15.3,18.1,0
14:28:07.830,-2.52,7.3,14.9,18.5,0
14:28:07.840,-2.43,7.1,14.4,18.9,0
14:28:07.850,-2.31,6.9,14,19.3,0
14:28:07.850,-2.1,6.7,13.7,19.7,0
14:28:07.860,-1.95,6.6,13.3,20,0
14:28:07.870,-1.91,6.4,13,20.3,0
14:28:07.880,-1.87,6.2,12.7,20.6,0
14:28:07.890,-1.75,6.1,12.4,20.9,0
14:28:07.900,-1.59,6,12.1,21.2,0
14:28:07.910,-1.49,5.9,11.9,21.5,0
14:28:07.920,-1.48,5.8,11.6,21.7,0
14:28:07.930,-1.45,5.7,11.4,22,0
14:28:07.940,-1.34,5.6,11.2,22.2,0
14:28:07.950,-1.22,5.4,10.9,22.4,0
14:28:07.960,-1.15,5.4,10.7,22.6,0
14:28:07.970,-1.11,5.3,10.6,22.8,0
14:28:07.980,-0.99,5.2,10.4,23,0
14:28:07.990,-0.87,5.2,10.2,23.1,0
14:28:08.000,-0.82,5.1,10.1,23.3,0
14:28:08.010,-0.8,5,10,23.4,0
14:28:08.020,-0.84,4.9,9.8,23.5,0
14:28:08.030,-0.86,4.9,9.7,23.7,0
14:28:08.040,-0.77,4.8,9.5,23.8,0
14:28:08.050,-0.63,4.8,9.4,23.9,0
14:28:08.060,-0.68,4.7,9.3,24,0
14:28:08.070,-0.66,4.7,9.2,24.1,0
14:28:08.080,-0.53,4.7,9.1,24.2,0
14:28:08.090,-0.5,4.7,9,24.3,0
14:28:08.100,-0.54,4.6,8.9,24.4,0
14:28:08.110,-0.53,4.6,8.8,24.5,0
14:28:08.120,-0.53,4.6,8.8,24.6,0
14:28:08.130,-0.53,4.6,8.7,24.7,0
14:28:08.140,-0.5,4.6,8.6,24.8,0
14:28:08.150,-0.52,4.5,8.5,24.9,0
14:28:08.160,-0.45,4.5,8.4,24.9,0
14:28:08.170,-0.32,4.5,8.4,25,0
14:28:08.180,-0.3,4.4,8.3,25,0
14:28:08.190,-0.37,4.4,8.2,25.1,0
14:28:08.200,-0.34,4.4,8.2,25.2,0
14:28:08.210,-0.37,4.3,8.1,25.2,0
14:28:08.220,-0.33,4.3,8.1,25.3,0
14:28:08.230,-0.24,4.4,8,25.3,0
14:28:08.240,-0.29,4.4,8,25.4,0
14:28:08.250,-0.36,4.3,7.9,25.4,0
14:28:08.260,-0.33,4.3,7.9,25.5,0
14:28:08.270,-0.3,4.3,7.8,25.5,0
14:28:08.280,-0.26,4.3,7.8,25.6,0
14:28:08.290,-0.22,4.3,7.7,25.6,0
14:28:08.300,-0.25,4.3,7.7,25.7,0
14:28:08.310,-0.06,4.3,7.7,25.7,0
14:28:08.320,0.2,4.4,7.7,25.7,0
14:28:08.330,0.41,4.5,7.7,25.7,0
14:28:08.340,0.89,4.8,0.1,25.7,0
14:28:08.350,1.71,5.2,0.3,25.7,0
14:28:08.360,2.7,5.9,0.7,25.7,0
14:28:08.370,3.72,6.9,1.2,25.7,0
14:28:08.380,4.67,7.9,1.9,25.7,0
14:28:08.390,5.54,8.9,2.8,25.7,0
14:28:08.400,6.23,10.1,3.8,25.7,0
14:28:08.410,6.6,11.2,4.8,25.7,0
14:28:08.420,6.71,12.3,5.9,25.7,0
14:28:08.430,6.72,13.2,7.1,25.7,0
14:28:08.440,6.73,14.2,8.2,25.7,0
14:28:08.450,6.83,15.1,9.3,0,0
14:28:08.460,6.78,16.1,10.4,0,0
14:28:08.470,6.72,17,11.6,0,0
14:28:08.480,6.77,17.9,12.7,0,0
14:28:08.490,6.78,18.9,13.8,0,0
14:28:08.500,6.76,19.8,14.9,0,0
14:28:08.510,6.84,20.7,16.1,0,0
14:28:08.520,6.87,21.5,17.2,0,0
14:28:08.530,6.83,22.4,18.4,0,0
14:28:08.540,6.75,23.3,19.5,0,0
14:28:08.550,6.74,24.2,20.6,0,0
14:28:08.560,6.82,25.1,21.7,0,0
14:28:08.570,6.85,26,22.9,0,0
14:28:08.580,6.78,26.8,24,0,0
14:28:08.590,6.77,27.7,25.1,0,0
14:28:08.600,6.68,28.6,26.3,0,0
14:28:08.610,6.58,29.5,27.4,0,0
14:28:08.620,6.07,30.1,28.4,0,0
14:28:08.630,5.22,30.6,29.4,0,0
14:28:08.640,4.37,31,30.2,0,0
14:28:08.650,3.62,31.3,30.8,0,0
14:28:08.660,2.98,31.4,31.4,0,0
14:28:08.670,2.35,31.6,31.8,0,0
14:28:08.680,1.76,31.6,32.2,0,0
14:28:08.690,1.24,31.5,32.4,0,0
14:28:08.700,0.84,31.4,32.6,0,0
14:28:08.710,0.67,31.2,32.7,0,0
14:28:08.720,0.61,30.9,32.8,0,0
14:28:08.730,0.56,30.6,32.9,0,0
14:28:08.740,0.5,30.4,33,0,0
14:28:08.750,0.46,30.1,33.1,0,0
14:28:08.760,0.49,30,33.2,0,0
14:28:08.770,0.54,29.8,33.2,0,0
14:28:08.780,0.59,29.7,33.3,0,0
14:28:08.790,0.66,29.7,33.4,0,0
14:28:08.800,0.74,29.6,33.6,0,0
14:28:08.810,0.79,29.6,33.7,0,0
14:28:08.820,0.85,29.5,33.8,0,0
14:28:08.830,0.93,29.5,34,0,0
14:28:08.840,0.98,29.5,34.1,0,0
14:28:08.850,1.02,29.5,34.3,0,0
14:28:08.850,1.04,29.5,34.5,0,0
14:28:08.860,1.05,29.5,34.6,0,0
14:28:08.870,1.02,29.6,34.8,0,0
14:28:08.880,0.64,29.5,35,0,0
14:28:08.890,-0.86,29.1,34.9,0,0
14:28:08.900,-1.91,28,34.7,0,0
14:28:08.910,-3.15,26.4,34.3,0,0
14:28:08.920,-4.52,24.4,33.6,0,0
14:28:08.930,-5.83,22.3,32.8,0,0
14:28:08.940,-6.85,20.2,31.7,0,0
14:28:08.950,-7.4,18.2,30.5,0,0
14:28:08.960,-7.49,16.5,29.3,0,0
14:28:08.970,-7.02,15.2,28.1,0,0
14:28:08.980,-6.26,14.1,26.9,0,0
14:28:08.990,-5.71,13.2,26,0,0
14:28:09.000,-5.51,12.4,25,0,0
14:28:09.010,-5.24,11.6,24.1,1.8,0
14:28:09.020,-4.81,11,23.3,2.6,0
14:28:09.030,-4.46,10.5,22.5,3.4,0
14:28:09.040,-4.22,10,21.8,4.1,0
14:28:09.050,-4.02,9.6,21.1,4.8,0
14:28:09.060,-3.74,9.2,20.5,5.4,0
14:28:09.070,-3.54,8.8,19.9,6,0
14:28:09.080,-3.37,8.5,19.3,6.6,0
14:28:09.090,-3.17,8.1,18.7,7.2,0
14:28:09.100,-2.94,7.8,18.2,7.7,0
14:28:09.110,-2.72,7.6,17.8,8.1,0
14:28:09.120,-2.57,7.4,17.3,8.6,0
14:28:09.130,-2.48,7.1,16.9,9,0
14:28:09.140,-2.3,7,16.5,9.4,0
14:28:09.150,-2.08,6.8,16.1,9.8,0
14:28:09.160,-1.95,6.6,15.8,10.1,0
14:28:09.170,-1.89,6.5,15.5,10.4,0
14:28:09.180,-1.79,6.3,15.2,10.7,0
14:28:09.190,-1.69,6.2,14.9,11,0
14:28:09.200,-1.59,6.1,14.6,11.3,0
14:28:09.210,-1.54,6,14.3,11.5,0
14:28:09.220,-1.54,5.8,14.1,11.8,0
14:28:09.230,-1.45,5.7,13.8,12,0
14:28:09.240,-1.29,5.7,13.6,12.3,0
14:28:09.250,-1.25,5.6,13.4,12.5,0
14:28:09.260,-1.25,5.5,13.2,12.7,0
14:28:09.270,-1.23,5.4,13,12.9,0
14:28:09.280,-1.15,5.3,12.8,13.1,0
14:28:09.290,-1.08,5.3,12.6,13.3,0
14:28:09.300,-0.97,5.2,12.4,13.5,0
14:28:09.310,-0.89,5.1,12.3,13.6,0
14:28:09.320,-0.88,5.1,12.1,13.8,0
14:28:09.330,-0.86,5,12,13.9,0
14:28:09.340,-0.76,5,11.9,14,0
14:28:09.350,-0.71,4.9,11.7,14.2,0
14:28:09.360,-0.74,4.8,11.6,14.3,0
14:28:09.370,-0.74,4.8,11.5,14.4,0
14:28:09.380,-0.64,4.8,11.4,14.5,0
14:28:09.390,-0.61,4.7,11.3,14.6,0
14:28:09.400,-0.63,4.7,11.2,14.7,0
14:28:09.410,-0.59,4.7,11.1,14.8,0
14:28:09.420,-0.58,4.6,11,14.9,0
14:28:09.430,-0.61,4.6,10.9,15,0
14:28:09.440,-0.56,4.6,10.8,15.1,0
14:28:09.450,-0.51,4.5,10.7,15.2,0
14:28:09.460,-0.17,4.6,10.6,15.2,0
14:28:09.470,0.47,4.7,10.6,15.2,0
14:28:09.480,0.48,4.8,0,15.2,0
14:28:09.490,0.46,5,0,15.2,0
14:28:09.500,0.84,5.3,0.3,15.2,0
14:28:09.510,1.37,5.6,0.5,15.2,0
14:28:09.520,1.96,6.2,0.7,15.2,0
14:28:09.530,2.61,6.8,1.1,15.2,0
14:28:09.540,3.16,7.6,1.6,15.2,0
14:28:09.550,3.63,8.3,2.2,15.2,0
14:28:09.560,4.23,9.2,2.8,15.2,0
14:28:09.570,4.93,10.1,3.6,0,0
14:28:09.580,5.57,11.1,4.4,0,0
14:28:09.590,6.13,12.1,5.4,0,0
14:28:09.600,6.5,13.2,6.5,0,0
14:28:09.610,6.66,14.2,7.6,0,0
14:28:09.620,6.55,15.2,8.7,0,0
14:28:09.630,6.52,16.1,9.8,0,0
14:28:09.640,6.51,17.1,10.8,0,0
14:28:09.650,6.52,18.1,11.9,0,0
14:28:09.660,6.55,19.1,13,0,0
14:28:09.670,6.59,20,14.1,0,0
14:28:09.680,6.65,20.9,15.2,0,0
14:28:09.690,6.75,21.9,16.3,0,0
14:28:09.700,6.8,22.8,17.5,0,0
14:28:09.710,6.74,23.7,18.6,0,0
14:28:09.720,6.64,24.6,19.7,0,0
14:28:09.730,6.65,25.5,20.8,0,0
14:28:09.740,6.7,26.5,21.9,0,0
14:28:09.750,6.71,27.4,23,0,0
14:28:09.760,6.59,28.4,24.2,0,0
14:28:09.770,6.41,29.3,25.2,0,0
14:28:09.780,6.02,30.1,26.3,0,0
14:28:09.790,5.23,30.7,27.2,0,0
14:28:09.800,4.33,31.1,28,0,0
14:28:09.810,3.44,31.5,28.7,0,0
14:28:09.820,2.68,31.8,29.2,0,0
14:28:09.830,2.21,31.9,29.6,0,0
14:28:09.840,1.71,31.9,29.9,0,0
14:28:09.850,0.95,31.8,30.1,0,0
14:28:09.870,0.4,31.6,30.2,0,0
14:28:09.880,0.39,31.4,30.3,0,0
14:28:09.890,0.4,31.1,30.4,0,0
14:28:09.900,0.32,30.8,30.4,0,0
14:28:09.910,0.29,30.5,30.5,0,0
14:28:09.920,0.35,30.2,30.5,0,0
14:28:09.930,0.4,30,30.6,0,0
14:28:09.940,0.43,29.8,30.7,0,0
14:28:09.950,0.47,29.6,30.7,0,0
14:28:09.960,0.52,29.6,30.8,0,0
14:28:09.970,0.57,29.6,30.9,0,0
14:28:09.980,0.62,29.6,31,0,0
14:28:09.990,0.66,29.6,31.1,0,0
14:28:10.000,0.67,29.7,31.2,0,0
14:28:10.010,0.67,29.7,31.3,0,0
14:28:10.020,0.68,29.8,31.4,0,0
14:28:10.030,0.7,29.8,31.6,0,0
14:28:10.040,0.7,29.8,31.7,0,0
14:28:10.050,0.69,29.8,31.8,0,0
14:28:10.060,0.67,29.8,31.9,0,0
14:28:10.070,0.65,29.9,32,0,0
14:28:10.080,0.63,29.9,32.1,0,0
14:28:10.090,0.6,29.9,32.2,0,0
14:28:10.100,0.59,29.9,32.3,0,0
14:28:10.110,0.59,29.9,32.4,0,0
14:28:10.120,0.6,29.9,32.5,0,0
14:28:10.130,0.61,29.9,32.6,0,0
14:28:10.140,0.61,29.8,32.7,0,0
14:28:10.150,0.63,29.8,32.8,0,0
14:28:10.160,0.64,29.8,32.9,0,0
14:28:10.170,0.63,29.8,33,0,0
14:28:10.180,0.62,29.8,33.1,0,0
14:28:10.190,0.66,29.8,33.2,0,0
14:28:10.200,0.7,29.8,33.3,0,0
14:28:10.210,0.72,29.8,33.5,0,0
14:28:10.220,0.73,29.7,33.6,0,0
14:28:10.230,0.76,29.7,33.7,0,0
14:28:10.240,0.8,29.7,33.8,0,0
14:28:10.250,0.83,29.7,34,0,0
14:28:10.260,0.84,29.6,34.1,0,0
14:28:10.270,0.86,29.6,34.3,0,0
14:28:10.280,0.88,29.6,34.4,0,0
14:28:10.290,0.89,29.7,34.5,0,0
14:28:10.300,0.9,29.7,34.7,0,0
14:28:10.310,0.91,29.6,34.8,0,0
14:28:10.320,0.94,29.6,35,0,0
14:28:10.330,0.98,29.6,35.2,0,0
14:28:10.340,1.04,29.6,35.3,0,0
14:28:10.350,1.12,29.5,35.5,0,0
14:28:10.360,1.22,29.4,35.7,0,0
14:28:10.370,1.34,29.3,35.9,0,0
14:28:10.380,1.44,29.2,36.1,0,0
14:28:10.390,1.5,29.2,36.4,0,0
14:28:10.400,1.56,29.1,36.6,0,0
14:28:10.410,1.61,29.1,36.9,0,0
14:28:10.420,1.69,29.1,37.2,0,0
14:28:10.430,1.75,29.1,37.5,0,0
14:28:10.440,1.86,29,37.8,0,0
14:28:10.450,1.68,28.8,38.1,0,0
14:28:10.460,1.1,28.5,38.3,0,0
14:28:10.470,1,28.2,38.5,0,0
14:28:10.480,1.49,28,38.7,0,0
14:28:10.490,1.85,27.9,39,0,0
14:28:10.500,1.85,27.8,39.3,0,0
14:28:10.510,1.75,27.8,39.6,0,0
14:28:10.520,1.81,27.8,39.9,0,0
14:28:10.530,2.1,27.8,40.2,0,0
14:28:10.540,2.66,27.9,40.6,0,0
14:28:10.550,3.27,27.9,41.1,0,0
14:28:10.560,3.82,27.9,41.7,0,0
14:28:10.570,4.21,27.8,42.3,0,0
14:28:10.580,4.45,27.7,43.1,0,0
14:28:10.590,4.56,27.6,43.8,0,0
14:28:10.600,4.67,27.5,44.6,0,0
14:28:10.610,4.85,27.5,45.4,0,0
14:28:10.620,4.96,27.4,46.2,0,0
14:28:10.630,5.01,27.2,47,0,0
14:28:10.640,5.06,27.1,47.9,0,0
14:28:10.650,5.06,27,48.7,0,0
14:28:10.660,5.02,27.1,49.5,0,0
14:28:10.670,4.96,27.3,50.4,0,0
14:28:10.680,4.88,27.6,51.2,0,0
14:28:10.690,4.75,27.8,52,0,0
14:28:10.700,4.75,27.8,52.8,0,0
14:28:10.710,5.01,27.6,53.6,0,0
14:28:10.720,5.24,27.2,54.4,0,0
14:28:10.730,5.34,26.9,55.3,0,0
14:28:10.740,5.32,26.8,56.2,0,0
14:28:10.750,5.32,26.8,57.1,0,0
14:28:10.760,5.26,27,58,0,0
14:28:10.770,5.12,27.3,58.8,0,0
14:28:10.780,4.98,27.6,59.7,0,0
14:28:10.790,4.94,27.7,60.5,0,0
14:28:10.800,4.82,27.8,61.3,0,0
14:28:10.810,4.61,28,62.1,0,0
14:28:10.820,4.3,28.3,62.9,0,0
14:28:10.830,2.92,28.6,63.5,0,0
14:28:10.840,-3.27,27.7,63.3,0,0
14:28:10.850,-6.49,25.3,62.5,0,0
14:28:10.860,-8,22.8,61.3,0,0
14:28:10.870,-7.67,21,60,0,0
14:28:10.860,-6.93,19.3,58.8,0,0
14:28:10.870,-6.95,17.6,57.6,0,0
14:28:10.880,-7.09,15.9,56.4,0,0
14:28:10.890,-6.7,14.6,55.3,0,0
14:28:10.900,-5.97,13.5,54.2,0,0
14:28:10.910,-5.49,12.6,53.3,0,0
14:28:10.920,-5.24,11.8,52.4,1.8,0
14:28:10.930,-4.97,11.2,51.5,2.6,0
14:28:10.940,-4.72,10.7,50.7,3.4,0
14:28:10.950,-4.36,10.2,50,4.2,0
14:28:10.960,-4.1,9.7,49.3,4.9,0
14:28:10.970,-3.95,9.3,48.6,5.5,0
14:28:10.980,-3.68,9,48,6.2,0
14:28:10.990,-3.42,8.6,47.4,6.8,0
14:28:11.000,-3.23,8.3,46.8,7.3,0
14:28:11.010,-2.97,8,46.3,7.8,0
14:28:11.020,-2.74,7.7,45.8,8.3,0
14:28:11.030,-2.68,7.4,45.4,8.8,0
14:28:11.040,-2.59,7.2,44.9,9.2,0
14:28:11.050,-2.41,7,44.5,9.6,0
14:28:11.060,-2.23,6.8,44.1,10,0
14:28:11.070,-2.07,6.7,43.8,10.4,0
14:28:11.080,-1.97,6.5,43.4,10.7,0
14:28:11.090,-1.88,6.4,43.1,11,0
14:28:11.100,-1.76,6.2,42.8,11.3,0
14:28:11.110,-1.65,6.1,42.5,11.6,0
14:28:11.120,-1.55,6,42.3,11.9,0
14:28:11.130,-1.53,5.9,42,12.1,0
14:28:11.140,-1.51,5.7,41.8,12.4,0
14:28:11.150,-1.41,5.7,41.5,12.6,0
14:28:11.160,-1.25,5.6,41.3,12.9,0
14:28:11.170,-1.18,5.5,41.1,13.1,0
14:28:11.180,-1.21,5.4,40.9,13.3,0
14:28:11.190,-1.22,5.3,40.7,13.5,0
14:28:11.200,-1.09,5.2,40.5,13.6,0
14:28:11.210,-0.93,5.2,40.3,13.8,0
14:28:11.220,-0.95,5.1,40.2,14,0
14:28:11.230,-0.91,5.1,40,14.1,0
14:28:11.240,-0.81,5,39.9,14.3,0
14:28:11.250,-0.78,5,39.7,14.4,0
14:28:11.260,-0.77,4.9,39.6,14.5,0
14:28:11.270,-0.72,4.9,39.5,14.7,0
14:28:11.280,-0.7,4.8,39.4,14.8,0
14:28:11.290,-0.58,4.8,39.3,14.9,0
14:28:11.300,1.19,5.4,0,14.9,0
14:28:11.310,2.7,6.1,0.4,14.9,0
14:28:11.320,3.33,6.8,0.9,14.9,0
14:28:11.330,3.7,7.7,1.5,14.9,0
14:28:11.340,4.47,8.8,2.1,14.9,0
14:28:11.350,5.37,9.8,2.9,14.9,0
14:28:11.360,6.2,10.9,3.9,14.9,0
14:28:11.370,6.75,12.1,5,0,0
14:28:11.380,6.82,13.1,6.1,0,0
14:28:11.390,6.65,14.1,7.3,0,0
14:28:11.400,6.64,15.1,8.4,0,0
14:28:11.410,6.74,16.1,9.5,0,0
14:28:11.420,6.81,17,10.6,0,0
14:28:11.430,6.78,18,11.7,0,0
14:28:11.440,6.77,18.9,12.9,0,0
14:28:11.450,6.77,19.9,14,0,0
14:28:11.460,6.74,20.8,15.1,0,0
14:28:11.470,6.69,21.7,16.2,0,0
14:28:11.480,6.69,22.6,17.4,0,0
14:28:11.490,6.74,23.5,18.5,0,0
14:28:11.500,6.75,24.4,19.6,0,0
14:28:11.510,6.71,25.4,20.7,0,0
14:28:11.520,6.73,26.3,21.8,0,0
14:28:11.530,6.77,27.2,23,0,0
14:28:11.540,6.71,28.2,24.1,0,0
14:28:11.550,6.56,29.1,25.2,0,0
14:28:11.560,6.27,29.9,26.3,0,0
14:28:11.570,5.49,30.5,27.2,0,0
14:28:11.580,4.52,30.9,28.1,0,0
14:28:11.590,3.71,31.3,28.8,0,0
14:28:11.600,3.01,31.5,29.3,0,0
14:28:11.610,2.44,31.7,29.8,0,0
14:28:11.620,1.9,31.7,30.1,0,0
14:28:11.630,1.37,31.7,30.4,0,0
14:28:11.640,0.86,31.5,30.6,0,0
14:28:11.650,0.57,31.3,30.7,0,0
14:28:11.660,0.48,31,30.8,0,0
14:28:11.670,0.49,30.7,30.9,0,0
14:28:11.680,0.47,30.4,31,0,0
14:28:11.690,0.48,30.2,31,0,0
14:28:11.700,0.54,29.9,31.1,0,0
14:28:11.710,0.61,29.7,31.2,0,0
14:28:11.720,0.65,29.6,31.3,0,0
14:28:11.730,0.72,29.5,31.4,0,0
14:28:11.740,0.79,29.5,31.6,0,0
14:28:11.750,0.79,29.5,31.7,0,0
14:28:11.760,0.79,29.5,31.8,0,0
14:28:11.770,0.43,29.5,31.9,0,0
14:28:11.780,-1.09,28.9,31.8,0,0
14:28:11.790,-2.2,27.7,31.6,0,0
14:28:11.800,-3.31,26.1,31.1,0,0
14:28:11.810,-4.25,24.3,30.5,0,0
14:28:11.820,-4.75,22.6,29.7,0,0
14:28:11.830,-5.02,21.1,28.9,0,0
14:28:11.840,-5.42,19.6,28,0,0
14:28:11.850,-6.34,17.7,27.1,1.8,0
14:28:11.860,-7.05,15.9,25.9,2.9,0
14:28:11.860,-6.9,14.6,24.8,4.1,0
14:28:11.870,-6.19,13.6,23.7,5.2,0
14:28:11.880,-5.6,12.8,22.7,6.2,0
14:28:11.890,-5.26,12,21.8,7.1,0
14:28:11.900,-5.03,11.3,20.9,7.9,0
14:28:11.910,-4.76,10.6,20.1,8.8,0
14:28:11.920,-4.38,10.1,19.4,9.5,0
14:28:11.930,-3.94,9.6,18.7,10.2,0
14:28:11.940,-3.66,9.2,18,10.8,0
14:28:11.950,-3.49,8.8,17.4,11.4,0
14:28:11.960,-3.26,8.4,16.9,12,0
14:28:11.970,-3.02,8.1,16.3,12.5,0
14:28:11.980,-2.84,7.8,15.9,13,0
14:28:11.990,-2.64,7.5,15.4,13.5,0
14:28:12.000,-2.48,7.2,15,13.9,0
14:28:12.010,-2.35,7,14.6,14.3,0
14:28:12.020,-2.23,6.8,14.2,14.7,0
14:28:12.030,-2.16,6.6,13.8,15,0
14:28:12.040,-2.06,6.4,13.5,15.4,0
14:28:12.050,-1.86,6.3,13.1,15.7,0
14:28:12.060,-1.67,6.2,12.9,16,0
14:28:12.070,-1.54,6.1,12.6,16.3,0
14:28:12.080,-1.51,5.9,12.3,16.5,0
14:28:12.090,-1.5,5.8,12.1,16.8,0
14:28:12.100,-1.38,5.7,11.8,17,0
14:28:12.110,-1.22,5.6,11.6,17.2,0
14:28:12.120,-1.12,5.4,11.4,17.4,0
14:28:12.130,-1.06,5.3,11.3,17.6,0
14:28:12.140,-1.01,5.2,11.1,17.8,0
14:28:12.150,-1.01,5.1,10.9,18,0
14:28:12.160,-1.01,5.1,10.7,18.1,0
14:28:12.170,-0.86,5.1,10.6,18.3,0
14:28:12.180,-0.7,5,10.5,18.4,0
14:28:12.190,-0.75,5,10.3,18.5,0
14:28:12.200,-0.8,4.9,10.2,18.7,0
14:28:12.210,-0.69,4.9,10.1,18.8,0
14:28:12.220,-0.6,4.8,10,18.9,0
14:28:12.230,-0.63,4.7,9.9,19,0
14:28:12.240,-0.59,4.7,9.8,19.1,0
14:28:12.250,-0.53,4.7,9.7,19.2,0
14:28:12.260,-0.52,4.6,9.6,19.3,0
14:28:12.270,-0.51,4.5,9.5,19.4,0
14:28:12.280,-0.47,4.5,9.4,19.4,0
14:28:12.290,-0.41,4.5,9.4,19.5,0
14:28:12.300,-0.35,4.5,9.3,19.6,0
14:28:12.310,-0.28,4.5,9.2,19.6,0
14:28:12.320,-0.3,4.4,9.2,19.7,0
14:28:12.330,-0.38,4.4,9.1,19.7,0
14:28:12.340,-0.36,4.4,9.1,19.8,0
14:28:12.350,-0.3,4.4,9,19.9,0
14:28:12.360,-0.29,4.4,9,19.9,0
14:28:12.370,-0.28,4.3,8.9,19.9,0
14:28:12.380,-0.25,4.3,8.9,20,0
14:28:12.390,-0.15,4.3,8.9,20,0
14:28:12.400,-0.15,4.3,8.9,20,0
14:28:12.410,-0.22,4.3,8.9,20,0
14:28:12.420,-0.21,4.3,8.8,20.1,0
14:28:12.430,-0.25,4.2,8.8,20.1,0
14:28:12.440,-0.26,4.2,8.7,20.1,0
14:28:12.450,-0.09,4.2,8.7,20.1,0
14:28:12.460,0.21,4.3,8.7,20.1,0
14:28:12.470,0.57,4.5,0,20.1,0
14:28:12.480,1.09,4.8,0.2,20.1,0
14:28:12.490,1.65,5.2,0.4,20.1,0
14:28:12.500,2.23,5.7,0.7,20.1,0
14:28:12.510,3.04,6.5,1.1,20.1,0
14:28:12.520,4.14,7.4,1.7,20.1,0
14:28:12.530,5.14,8.4,2.5,0,0
14:28:12.540,5.97,9.6,3.4,0,0
14:28:12.550,6.51,10.7,4.5,0,0
14:28:12.560,6.68,11.7,5.6,0,0
14:28:12.570,6.67,12.7,6.7,0,0
14:28:12.580,6.63,13.7,7.8,0,0
14:28:12.590,6.67,14.6,8.9,0,0
14:28:12.600,6.75,15.6,10,0,0
14:28:12.610,6.78,16.5,11.2,0,0
14:28:12.620,6.72,17.4,12.3,0,0
14:28:12.630,6.71,18.4,13.4,0,0
14:28:12.640,6.73,19.3,14.5,0,0
14:28:12.650,6.77,20.2,15.6,0,0
14:28:12.660,6.78,21.1,16.8,0,0
14:28:12.670,6.7,22.1,17.9,0,0
14:28:12.680,6.71,23,19,0,0
14:28:12.690,6.73,23.9,20.1,0,0
14:28:12.700,6.75,24.8,21.3,0,0
14:28:12.710,6.72,25.8,22.4,0,0
14:28:12.720,6.62,26.7,23.5,0,0
14:28:12.730,6.6,27.7,24.6,0,0
14:28:12.740,6.55,28.6,25.7,0,0
14:28:12.750,6.44,29.6,26.8,0,0
14:28:12.760,5.98,30.3,27.8,0,0
14:28:12.770,5.03,30.9,28.7,0,0
14:28:12.780,3.98,31.3,29.5,0,0
14:28:12.790,3.23,31.7,30.1,0,0
14:28:12.800,2.56,31.9,30.6,0,0
14:28:12.810,1.82,32,30.9,0,0
14:28:12.820,1.19,32,31.2,0,0
14:28:12.830,0.7,31.9,31.3,0,0
14:28:12.840,0.33,31.7,31.4,0,0
14:28:12.850,0.12,31.4,31.4,0,0
14:28:12.860,0.17,31.1,31.4,0,0
14:28:12.950,0.24,30.8,31.5,0,0
14:28:12.960,0.23,30.5,31.5,0,0
14:28:12.970,0.2,30.2,31.5,0,0
14:28:12.980,0.2,30,31.6,0,0
14:28:12.990,-0.75,29.6,31.5,0,0
14:28:13.000,-3.41,28.1,31.2,0,0
14:28:13.010,-6.62,25.1,30.4,0,0
14:28:13.020,-8.67,21.9,29.1,0,0
14:28:13.030,-8.72,19.4,27.6,0,0
14:28:13.040,-7.69,17.8,26.2,0,0
14:28:13.050,-7.01,16.3,25,1.1,0
14:28:13.060,-6.7,15,23.9,2.3,0
14:28:13.070,-6.31,13.9,22.8,3.3,0
14:28:13.080,-5.83,13,21.8,4.4,0
14:28:13.090,-5.41,12.2,20.8,5.3,0
14:28:13.100,-5.08,11.5,20,6.2,0
14:28:13.110,-4.69,10.8,19.2,7,0
14:28:13.120,-4.33,10.3,18.4,7.7,0
14:28:13.130,-4.1,9.8,17.7,8.4,0
14:28:13.140,-3.87,9.3,17,9.1,0
14:28:13.150,-3.6,8.9,16.4,9.7,0
14:28:13.160,-3.37,8.6,15.8,10.3,0
14:28:13.170,-3.16,8.3,15.3,10.8,0
14:28:13.180,-2.98,8,14.8,11.4,0
14:28:13.190,-2.81,7.7,14.3,11.8,0
14:28:13.200,-2.65,7.4,13.8,12.3,0
14:28:13.210,-2.47,7.2,13.4,12.7,0
14:28:13.220,-2.31,7,13,13.1,0
14:28:13.230,-2.2,6.8,12.6,13.5,0
14:28:13.240,-2.1,6.6,12.3,13.8,0
14:28:13.250,-1.93,6.4,12,14.2,0
14:28:13.260,-1.73,6.3,11.6,14.5,0
14:28:13.270,-1.58,6.2,11.4,14.8,0
14:28:13.280,-1.53,6,11.1,15,0
14:28:13.290,-1.52,5.9,10.9,15.3,0
14:28:13.300,-1.47,5.8,10.6,15.5,0
14:28:13.310,-1.4,5.7,10.4,15.8,0
14:28:13.320,-1.33,5.6,10.1,16,0
14:28:13.330,-1.24,5.5,9.9,16.2,0
14:28:13.340,-1.18,5.4,9.7,16.4,0
14:28:13.350,-1.1,5.3,9.5,16.6,0
14:28:13.360,-0.94,5.2,9.4,16.8,0
14:28:13.370,-0.87,5.2,9.2,16.9,0
14:28:13.380,-0.95,5.1,9.1,17.1,0
14:28:13.390,-0.93,5.1,8.9,17.2,0
14:28:13.400,-0.81,5,8.8,17.4,0
14:28:13.410,-0.74,5,8.6,17.5,0
14:28:13.420,-0.81,4.9,8.5,17.6,0
14:28:13.430,-0.81,4.8,8.4,17.8,0
14:28:13.440,-0.65,4.8,8.3,17.9,0
14:28:13.450,-0.54,4.7,8.2,18,0
14:28:13.460,-0.54,4.7,8.1,18.1,0
14:28:13.470,-0.59,4.7,8,18.2,0
14:28:13.480,-0.61,4.6,7.9,18.3,0
14:28:13.490,-0.5,4.6,7.8,18.4,0
14:28:13.500,-0.43,4.6,7.7,18.4,0
14:28:13.510,-0.47,4.6,7.6,18.5,0
14:28:13.520,-0.49,4.5,7.6,18.6,0
14:28:13.530,-0.44,4.5,7.5,18.7,0
14:28:13.540,-0.36,4.5,7.4,18.7,0
14:28:13.550,-0.35,4.4,7.3,18.8,0
14:28:13.560,-0.38,4.4,7.3,18.8,0
14:28:13.570,-0.37,4.4,7.2,18.9,0
14:28:13.580,-0.29,4.4,7.2,19,0
14:28:13.590,-0.27,4.4,7.1,19,0
14:28:13.600,-0.34,4.4,7.1,19.1,0
14:28:13.610,-0.35,4.3,7,19.1,0
14:28:13.620,-0.26,4.3,7,19.2,0
14:28:13.630,-0.2,4.3,6.9,19.2,0
14:28:13.640,-0.25,4.3,6.9,19.2,0
14:28:13.650,-0.24,4.3,6.9,19.2,0
14:28:13.660,-0.14,4.3,6.8,19.2,0
14:28:13.670,-0.07,4.3,6.8,19.2,0
14:28:13.680,-0.16,4.3,6.8,19.2,0
14:28:13.690,-0.21,4.2,6.8,19.3,0
14:28:13.700,-0.25,4.2,6.8,19.3,0
14:28:13.710,1.72,4.7,0.1,19.3,0
14:28:13.720,4.72,6.3,0.6,19.3,0
14:28:13.730,6.33,7.7,1.6,19.3,0
14:28:13.740,6.3,8.9,2.6,19.3,0
14:28:13.750,6.28,10,3.7,19.3,0
14:28:13.760,6.64,11.1,4.7,19.3,0
14:28:13.770,6.72,12.2,5.9,19.3,0
14:28:13.780,6.61,13.2,7,19.3,0
14:28:13.790,6.64,14.2,8.1,19.3,0
14:28:13.800,6.7,15.2,9.2,19.3,0
14:28:13.810,6.68,16.2,10.3,19.3,0
14:28:13.820,6.71,17.2,11.4,19.3,0
14:28:13.830,6.72,18.2,12.5,19.3,0
14:28:13.840,6.6,19.2,13.6,19.3,0
14:28:13.850,6.63,20.1,14.7,19.3,0
14:28:13.860,6.68,21.1,15.8,19.3,0
14:28:13.870,6.64,22.1,17,19.3,0
14:28:13.880,6.63,23,18.1,19.3,0
14:28:13.890,6.66,23.9,19.2,19.3,0
14:28:13.900,6.61,24.9,20.3,19.3,0
14:28:13.910,6.58,25.9,21.4,19.3,0
14:28:13.920,6.57,26.9,22.5,19.3,0
14:28:13.930,6.59,27.9,23.6,0,0
14:28:13.940,6.58,28.9,24.7,0,0
14:28:13.950,6.43,29.8,25.8,0,0
14:28:13.970,5.79,30.6,26.8,0,0
14:28:13.980,4.77,31.1,27.7,0,0
14:28:13.990,3.81,31.5,28.4,0,0
14:28:14.000,3.08,31.8,28.9,0,0
14:28:14.010,2.46,32,29.4,0,0
14:28:14.020,1.69,32.1,29.7,0,0
14:28:14.030,0.87,32.1,30,0,0
14:28:14.040,0.31,31.9,30.1,0,0
14:28:14.050,0.19,31.7,30.1,0,0
14:28:14.060,0.1,31.4,30.1,0,0
14:28:14.070,0,31.1,30.1,0,0
14:28:14.080,0,30.8,30.1,0,0
14:28:14.090,0,30.5,30.1,0,0
14:28:14.100,0,30.3,30.1,0,0
14:28:14.110,0.18,30,30.1,0,0
14:28:14.120,0.29,29.8,30.1,0,0
14:28:14.130,0.32,29.7,30.2,0,0
14:28:14.140,0.32,29.6,30.2,0,0
14:28:14.150,0.36,29.5,30.3,0,0
14:28:14.160,0.42,29.5,30.3,0,0
14:28:14.170,0.17,29.5,30.4,0,0
14:28:14.180,-2.27,28.6,30.2,0,0
14:28:14.190,-5.19,26.1,29.5,0,0
14:28:14.200,-6.85,23.4,28.5,0,0
14:28:14.210,-6.75,21.4,27.4,0,0
14:28:14.220,-6.57,19.7,26.3,0,0
14:28:14.230,-7.38,17.7,25.1,0,0
14:28:14.240,-7.67,16,23.8,0,0
14:28:14.250,-6.85,14.8,22.6,0,0
14:28:14.260,-5.92,13.9,21.6,0,0
14:28:14.270,-5.59,13,20.6,0,0
14:28:14.280,-5.53,12.1,19.7,0,0
14:28:14.290,-5.23,11.4,18.8,0,0
14:28:14.300,-4.73,10.8,18,0,0
14:28:14.310,-4.31,10.3,17.2,0,0
14:28:14.320,-4.12,9.8,16.5,0,0
14:28:14.330,-3.93,9.4,15.8,0,0
14:28:14.340,-3.63,8.9,15.2,0,0
14:28:14.350,-3.33,8.6,14.6,0,0
14:28:14.360,-3.22,8.3,14.1,0,0
14:28:14.370,-3.08,7.9,13.6,0,0
14:28:14.380,-2.82,7.7,13.1,0,0
14:28:14.390,-2.61,7.5,12.6,0,0
14:28:14.400,-2.43,7.2,12.2,0,0
14:28:14.410,-2.34,7,11.8,1.2,0
14:28:14.420,-2.25,6.8,11.4,1.6,0
14:28:14.430,-2.08,6.6,11,1.9,0
14:28:14.440,-1.92,6.5,10.7,2.3,0
14:28:14.450,-1.84,6.3,10.4,2.6,0
14:28:14.460,-1.73,6.1,10.1,2.9,0
14:28:14.470,-1.59,6,9.8,3.2,0
14:28:14.480,-1.48,5.9,9.6,3.4,0
14:28:14.490,-1.39,5.8,9.3,3.7,0
14:28:14.500,-1.34,5.7,9.1,3.9,0
14:28:14.510,-1.29,5.6,8.9,4.1,0
14:28:14.520,-1.3,5.5,8.7,4.3,0
14:28:14.530,-1.26,5.4,8.5,4.5,0
14:28:14.540,-1.14,5.4,8.3,4.7,0
14:28:14.550,-1.07,5.3,8.1,4.9,0
14:28:14.560,-1.02,5.2,7.9,5.1,0
14:28:14.570,-0.95,5.1,7.7,5.3,0
14:28:14.580,-0.93,5,7.6,5.4,0
14:28:14.590,-0.94,4.9,7.4,5.6,0
14:28:14.600,-0.82,4.9,7.3,5.7,0
14:28:14.610,-0.75,4.9,7.2,5.8,0
14:28:14.620,-0.77,4.8,7,6,0
14:28:14.630,-0.69,4.8,6.9,6.1,0
14:28:14.640,-0.59,4.8,6.8,6.2,0
14:28:14.650,-0.55,4.7,6.7,6.3,0
14:28:14.660,-0.5,4.7,6.6,6.4,0
14:28:14.670,-0.46,4.6,6.5,6.5,0
14:28:14.680,-0.55,4.6,6.5,6.5,0
14:28:14.690,-0.62,4.6,6.4,6.6,0
14:28:14.700,-0.49,4.6,6.3,6.7,0
14:28:14.710,-0.4,4.6,6.2,6.8,0
14:28:14.720,-0.47,4.5,6.1,6.9,0
14:28:14.730,-0.46,4.5,6,6.9,0
14:28:14.740,-0.36,4.5,6,7,0
14:28:14.750,-0.34,4.5,5.9,7.1,0
14:28:14.760,-0.4,4.4,5.9,7.1,0
14:28:14.770,-0.4,4.4,5.8,7.2,0
14:28:14.780,-0.32,4.4,5.7,7.3,0
14:28:14.790,-0.28,4.4,5.7,7.3,0
14:28:14.800,-0.18,4.3,5.7,7.3,0
14:28:14.810,-0.16,4.3,5.7,7.3,0
14:28:14.820,-0.3,4.3,5.6,7.4,0
14:28:14.830,-0.31,4.3,5.6,7.4,0
14:28:14.840,-0.22,4.3,5.5,7.5,0
14:28:14.850,-0.24,4.2,5.5,7.5,0
14:28:14.860,-0.27,4.2,5.4,7.5,0
14:28:14.870,-0.16,4.2,5.4,7.5,0
14:28:14.880,-0.12,4.2,5.4,7.5,0
14:28:14.890,-0.21,4.2,5.4,7.6,0
14:28:14.900,-0.2,4.2,5.4,7.6,0
14:28:14.910,-0.14,4.2,5.4,7.6,0
14:28:14.920,-0.14,4.2,5.4,7.6,0
14:28:14.930,-0.06,4.2,5.4,7.6,0
14:28:14.940,0,4.2,5.4,7.6,0
14:28:14.950,0,4.2,5.4,7.6,0
14:28:14.960,0,4.2,5.4,7.6,0
14:28:14.970,0,4.2,5.4,7.6,0
14:28:14.980,0,4.2,5.4,7.6,0
14:28:14.990,-0.17,4.2,5.4,7.6,0
14:28:15.000,0,4.2,5.4,7.6,0
14:28:15.010,1.02,4.6,0,7.6,0
14:28:15.020,2.27,5.3,0.3,7.6,0
14:28:15.030,3.58,6.3,0.8,7.6,0
14:28:15.040,5.03,7.6,1.5,7.6,0
14:28:15.050,6.28,8.9,2.5,7.6,0
14:28:15.060,6.9,10.2,3.6,7.6,0
14:28:15.070,6.83,11.3,4.7,0,0
14:28:15.080,6.67,12.3,5.8,0,0
14:28:15.090,6.7,13.3,6.9,0,0
14:28:15.100,6.75,14.4,8.1,0,0
14:28:15.110,6.73,15.4,9.2,0,0
14:28:15.120,6.71,16.3,10.3,0,0
14:28:15.130,6.77,17.3,11.4,0,0
14:28:15.140,6.83,18.3,12.6,0,0
14:28:15.150,6.77,19.3,13.7,0,0
14:28:15.160,6.63,20.3,14.8,0,0
14:28:15.170,6.59,21.2,15.9,0,0
14:28:15.180,6.69,22.2,17,0,0
14:28:15.190,6.71,23.2,18.1,0,0
14:28:15.200,6.61,24.1,19.2,0,0
14:28:15.210,6.61,25.1,20.3,0,0
14:28:15.220,6.69,26.2,21.5,0,0
14:28:15.230,6.74,27.2,22.6,0,0
14:28:15.240,6.64,28.2,23.7,0,0
14:28:15.250,6.59,29.2,24.8,0,0
14:28:15.260,6.31,30.1,25.9,0,0
14:28:15.270,5.43,30.8,26.9,0,0
14:28:15.280,4.35,31.3,27.7,0,0
14:28:15.290,3.44,31.7,28.3,0,0
14:28:15.300,2.72,32,28.8,0,0
14:28:15.310,2.16,32.1,29.2,0,0
14:28:15.320,1.54,32.2,29.5,0,0
14:28:15.330,0.71,32.1,29.7,0,0
14:28:15.340,-0.07,31.9,29.8,0,0
14:28:15.350,0,31.6,29.8,0,0
14:28:15.360,0,31.3,29.8,0,0
14:28:15.370,0,31,29.8,0,0
14:28:15.380,-1.19,30.4,29.7,0,0
14:28:15.390,-4.36,28.4,29.2,0,0
14:28:15.400,-7.63,24.9,28.2,0,0
14:28:15.410,-8.79,21.8,26.8,0,0
14:28:15.420,-7.72,19.9,25.4,0,0
14:28:15.430,-6.86,18.4,24.3,1.1,0
14:28:15.440,-7.28,16.6,23.1,2.3,0
14:28:15.450,-7.22,15.2,21.9,3.5,0
14:28:15.460,-6.42,14.2,20.7,4.6,0
14:28:15.470,-5.82,13.3,19.7,5.6,0
14:28:15.480,-5.59,12.5,18.8,6.6,0
14:28:15.490,-5.32,11.7,17.8,7.5,0
14:28:15.500,-4.92,11.1,17,8.3,0
14:28:15.510,-4.55,10.5,16.2,9.1,0
14:28:15.520,-4.27,10,15.5,9.9,0
14:28:15.530,-4,9.5,14.8,10.6,0
14:28:15.540,-3.7,9.1,14.1,11.2,0
14:28:15.550,-3.44,8.8,13.5,11.8,0
14:28:15.560,-3.29,8.4,13,12.4,0
14:28:15.570,-3.15,8,12.5,12.9,0
14:28:15.580,-2.96,7.8,11.9,13.4,0
14:28:15.590,-2.72,7.5,11.5,13.9,0
14:28:15.600,-2.47,7.3,11,14.3,0
14:28:15.610,-2.33,7.1,10.6,14.7,0
14:28:15.620,-2.29,6.8,10.3,15.1,0
14:28:15.630,-2.19,6.7,9.9,15.5,0
14:28:15.640,-2,6.5,9.5,15.8,0
14:28:15.650,-1.86,6.4,9.2,16.1,0
14:28:15.660,-1.84,6.2,8.9,16.4,0
14:28:15.670,-1.73,6.1,8.6,16.7,0
14:28:15.680,-1.61,5.9,8.3,17,0
14:28:15.690,-1.58,5.8,8.1,17.3,0
14:28:15.700,-1.43,5.7,7.8,17.5,0
14:28:15.710,-1.34,5.6,7.6,17.8,0
14:28:15.720,-1.28,5.5,7.4,18,0
14:28:15.730,-1.12,5.4,7.2,18.2,0
14:28:15.740,-1.02,5.4,7,18.4,0
14:28:15.750,-1.1,5.3,6.8,18.5,0
14:28:15.760,-1.09,5.2,6.6,18.7,0
14:28:15.770,-0.98,5.1,6.5,18.9,0
14:28:15.780,-0.97,5.1,6.3,19.1,0
14:28:15.790,-0.98,5,6.1,19.2,0
14:28:15.800,-0.84,5,6,19.4,0
14:28:15.810,-0.72,4.9,5.8,19.5,0
14:28:15.820,-0.68,4.8,5.7,19.6,0
14:28:15.830,-0.69,4.8,5.6,19.7,0
14:28:15.840,-0.69,4.7,5.5,19.8,0
14:28:15.850,-0.6,4.7,5.4,19.9,0
14:28:15.860,-0.51,4.7,5.3,20,0
14:28:15.870,-0.5,4.6,5.2,20.1,0
14:28:15.880,-0.5,4.6,5.1,20.2,0
14:28:15.890,-0.48,4.6,5.1,20.3,0
14:28:15.900,-0.5,4.5,5,20.4,0
14:28:15.910,-0.5,4.5,4.9,20.5,0
14:28:15.920,-0.5,4.5,4.8,20.5,0
14:28:15.930,-0.47,4.5,4.7,20.6,0
14:28:15.940,-0.36,4.5,4.7,20.7,0
14:28:15.950,-0.34,4.5,4.6,20.7,0
14:28:15.960,-0.36,4.4,4.5,20.8,0
14:28:15.970,-0.32,4.4,4.5,20.9,0
14:28:15.980,-0.29,4.4,4.4,20.9,0
14:28:15.970,-0.28,4.4,4.4,21,0
14:28:15.980,-0.28,4.3,4.3,21,0
14:28:15.990,-0.26,4.3,4.3,21,0
14:28:16.000,-0.26,4.3,4.3,21.1,0
14:28:16.010,-0.27,4.3,4.2,21.1,0
14:28:16.020,-0.25,4.3,4.2,21.2,0
14:28:16.030,-0.2,4.3,4.2,21.2,0
14:28:16.040,-0.13,4.3,4.2,21.2,0
14:28:16.050,-0.18,4.3,4.2,21.2,0
14:28:16.060,-0.2,4.2,4.1,21.2,0
14:28:16.070,-0.1,4.2,4.1,21.2,0
14:28:16.080,0,4.2,4.1,21.2,0
14:28:16.090,-0.21,4.2,4.1,21.2,0
14:28:16.100,-0.13,4.2,4.1,21.2,0
14:28:16.110,0,4.2,4.1,21.2,0
14:28:16.120,0,4.2,4.1,21.2,0
14:28:16.130,-0.19,4.2,4.1,21.2,0
14:28:16.140,-0.12,4.2,4.1,21.2,0
14:28:16.150,-0.14,4.2,4.1,21.2,0
14:28:16.160,0.16,4.2,4.1,21.2,0
14:28:16.170,2.18,5,0.1,21.2,0
14:28:16.180,4.49,6.3,0.7,21.2,0
14:28:16.190,5.59,7.6,1.5,21.2,0
14:28:16.200,6.1,8.8,2.5,21.2,0
14:28:16.210,6.57,10.1,3.6,21.2,0
14:28:16.220,6.69,11.2,4.7,21.2,0
14:28:16.230,6.59,12.3,5.8,0,0
14:28:16.240,6.62,13.3,6.9,0,0
14:28:16.250,6.72,14.3,8,0,0
14:28:16.260,6.7,15.4,9.1,0,0
14:28:16.270,6.64,16.3,10.2,0,0
14:28:16.280,6.71,17.3,11.3,0,0
14:28:16.290,6.81,18.2,12.5,0,0
14:28:16.300,6.78,19.2,13.6,0,0
14:28:16.310,6.67,20.2,14.7,0,0
14:28:16.320,6.62,21.1,15.8,0,0
14:28:16.330,6.65,22.1,16.9,0,0
14:28:16.340,6.7,23.1,18.1,0,0
14:28:16.350,6.65,24.1,19.2,0,0
14:28:16.360,6.55,25.2,20.3,0,0
14:28:16.370,6.57,26.2,21.4,0,0
14:28:16.380,6.65,27.2,22.5,0,0
14:28:16.390,6.59,28.2,23.6,0,0
14:28:16.400,6.53,29.2,24.7,0,0
14:28:16.410,6.26,30.1,25.7,0,0
14:28:16.420,5.5,30.7,26.7,0,0
14:28:16.430,4.41,31.2,27.5,0,0
14:28:16.440,3.47,31.6,28.2,0,0
14:28:16.450,2.72,32,28.7,0,0
14:28:16.460,2.08,32.1,29.1,0,0
14:28:16.470,1.48,32.2,29.4,0,0
14:28:16.480,0.71,32.1,29.6,0,0
14:28:16.490,0,31.9,29.6,0,0
14:28:16.500,0,31.7,29.6,0,0
14:28:16.510,0.16,31.4,29.6,0,0
14:28:16.520,0.1,31,29.6,0,0
14:28:16.530,-0.45,30.6,29.6,0,0
14:28:16.540,-2.1,29.5,29.4,0,0
14:28:16.550,-4.43,27.5,28.9,0,0
14:28:16.560,-6.1,24.9,28,0,0
14:28:16.570,-6.59,22.7,26.9,0,0
14:28:16.580,-6.09,21.1,25.8,1,0
14:28:16.590,-5.36,19.9,24.9,1.9,0
14:28:16.600,-5.61,18.4,24,2.8,0
14:28:16.610,-6.34,16.8,23,3.8,0
14:28:16.620,-6.2,15.6,21.9,4.9,0
14:28:16.630,-5.59,14.7,20.9,5.9,0
14:28:16.640,-5.54,13.6,20,6.8,0
14:28:16.650,-5.79,12.5,19.1,7.7,0
14:28:16.660,-5.58,11.8,18.1,8.7,0
14:28:16.670,-5.03,11.2,17.2,9.6,0
14:28:16.680,-4.54,10.6,16.4,10.4,0
14:28:16.690,-4.34,10.1,15.7,11.1,0
14:28:16.700,-4.18,9.6,15,11.8,0
14:28:16.710,-3.8,9.2,14.3,12.5,0
14:28:16.720,-3.48,8.8,13.7,13.1,0
14:28:16.730,-3.34,8.4,13.2,13.6,0
14:28:16.740,-3.13,8.1,12.6,14.2,0
14:28:16.750,-2.91,7.8,12.1,14.7,0
14:28:16.760,-2.76,7.6,11.6,15.2,0
14:28:16.770,-2.57,7.3,11.2,15.6,0
14:28:16.780,-2.37,7.1,10.8,16,0
14:28:16.790,-2.22,6.9,10.4,16.4,0
14:28:16.800,-2.16,6.7,10,16.8,0
14:28:16.810,-2.07,6.5,9.7,17.1,0
14:28:16.820,-1.91,6.4,9.4,17.4,0
14:28:16.830,-1.78,6.2,9.1,17.7,0
14:28:16.840,-1.75,6.1,8.8,18,0
14:28:16.850,-1.62,6,8.5,18.3,0
14:28:16.860,-1.43,5.9,8.2,18.6,0
14:28:16.870,-1.42,5.7,8,18.8,0
14:28:16.880,-1.43,5.6,7.8,19,0
14:28:16.890,-1.32,5.5,7.5,19.3,0
14:28:16.900,-1.23,5.4,7.3,19.5,0
14:28:16.910,-1.14,5.3,7.1,19.7,0
14:28:16.920,-1.03,5.3,6.9,19.9,0
14:28:16.930,-0.95,5.2,6.8,20,0
14:28:16.940,-0.97,5.1,6.6,20.2,0
14:28:16.950,-0.92,5.1,6.5,20.3,0
14:28:16.960,-0.84,5,6.3,20.5,0
14:28:16.970,-0.88,5,6.2,20.6,0
14:28:16.950,-0.89,4.9,6,20.8,0
14:28:16.960,-0.82,4.8,5.9,20.9,0
14:28:16.970,-0.67,4.8,5.8,21,0
14:28:16.980,-0.63,4.7,5.6,21.2,0
14:28:16.990,-0.65,4.7,5.5,21.3,0
14:28:17.000,-0.58,4.6,5.4,21.4,0
14:28:17.010,-0.47,4.6,5.3,21.4,0
14:28:17.020,-0.43,4.6,5.3,21.5,0
14:28:17.030,-0.5,4.6,5.2,21.6,0
14:28:17.040,-0.57,4.5,5.1,21.7,0
14:28:17.050,-0.48,4.5,5,21.8,0
14:28:17.060,-0.37,4.5,5,21.8,0
14:28:17.070,-0.41,4.5,4.9,21.9,0
14:28:17.080,-0.41,4.4,4.8,22,0
14:28:17.090,-0.35,4.4,4.8,22,0
14:28:17.100,-0.33,4.4,4.7,22.1,0
14:28:17.110,-0.34,4.4,4.6,22.2,0
14:28:17.120,-0.29,4.4,4.6,22.2,0
14:28:17.130,-0.18,4.4,4.6,22.2,0
14:28:17.140,-0.18,4.4,4.6,22.2,0
14:28:17.150,-0.23,4.3,4.5,22.2,0
14:28:17.160,-0.25,4.3,4.5,22.3,0
14:28:17.170,-0.26,4.3,4.5,22.3,0
14:28:17.180,-0.21,4.3,4.4,22.4,0
14:28:17.190,-0.22,4.3,4.4,22.4,0
14:28:17.200,-0.27,4.3,4.4,22.4,0
14:28:17.210,-0.24,4.3,4.3,22.5,0
14:28:17.220,-0.13,4.3,4.3,22.5,0
14:28:17.230,-0.11,4.3,4.3,22.5,0
14:28:17.240,-0.24,4.2,4.3,22.5,0
14:28:17.250,-0.22,4.2,4.3,22.6,0
14:28:17.260,-0.11,4.2,4.3,22.6,0
14:28:17.270,-0.11,4.2,4.3,22.6,0
14:28:17.280,-0.13,4.2,4.3,22.6,0
14:28:17.290,-0.11,4.2,4.3,22.6,0
14:28:17.300,-0.14,4.2,4.3,22.6,0
14:28:17.310,-0.16,4.2,4.3,22.6,0
14:28:17.320,-0.07,4.2,4.3,22.6,0
14:28:17.330,0.38,4.3,4.3,22.6,0
14:28:17.340,1.4,4.8,0.1,22.6,0
14:28:17.350,2.62,5.5,0.4,22.6,0
14:28:17.360,3.7,6.5,1,22.6,0
14:28:17.370,4.84,7.6,1.7,22.6,0
14:28:17.380,6.01,8.9,2.6,22.6,0
14:28:17.390,6.75,10.2,3.7,22.6,0
14:28:17.400,6.88,11.3,4.8,22.6,0
14:28:17.410,6.71,12.4,5.9,22.6,0
14:28:17.420,6.66,13.4,7,22.6,0
14:28:17.430,6.71,14.4,8.2,22.6,0
14:28:17.440,6.76,15.4,9.3,22.6,0
14:28:17.450,6.71,16.4,10.4,22.6,0
14:28:17.460,6.65,17.4,11.5,22.6,0
14:28:17.470,6.57,18.4,12.6,22.6,0
14:28:17.480,6.59,19.4,13.7,22.6,0
14:28:17.490,6.78,20.3,14.8,22.6,0
14:28:17.500,6.73,21.3,15.9,0,0
14:28:17.510,6.64,22.3,17.1,0,0
14:28:17.520,6.63,23.2,18.2,0,0
14:28:17.530,6.65,24.2,19.3,0,0
14:28:17.540,6.63,25.2,20.4,0,0
14:28:17.550,6.53,26.3,21.5,0,0
14:28:17.560,6.53,27.2,22.6,0,0
14:28:17.570,6.51,28.2,23.7,0,0
14:28:17.580,6.49,29.2,24.7,0,0
14:28:17.590,6.17,30,25.8,0,0
14:28:17.600,5.02,30.5,26.7,0,0
14:28:17.610,2.75,30.6,27.4,0,0
14:28:17.620,-2.06,29.9,27.4,0,0
14:28:17.630,-3.72,28.2,26.9,0,0
14:28:17.640,-5.11,25.8,26.1,0,0
14:28:17.650,-5.72,23.6,25.2,0,0
14:28:17.660,-5.5,21.9,24.3,0,0
14:28:17.670,-5.59,20.2,23.4,0,0
14:28:17.680,-6.54,18.3,22.4,0,0
14:28:17.690,-7.3,16.4,21.2,0,0
14:28:17.700,-7.04,15,20,0,0
14:28:17.710,-6.23,14,18.9,0,0
14:28:17.720,-5.66,13.1,17.9,0,0
14:28:17.730,-5.37,12.3,17,0,0
14:28:17.740,-5.15,11.5,16.1,0,0
14:28:17.750,-4.83,10.8,15.3,0,0
14:28:17.760,-4.48,10.2,14.5,0,0
14:28:17.770,-4.12,9.7,13.8,0,0
14:28:17.780,-3.78,9.3,13.1,0,0
14:28:17.790,-3.54,8.9,12.5,1.2,0
14:28:17.800,-3.4,8.5,12,1.8,0
14:28:17.810,-3.25,8.2,11.4,2.3,0
14:28:17.820,-3,7.9,10.9,2.8,0
14:28:17.830,-2.79,7.6,10.4,3.3,0
14:28:17.840,-2.61,7.3,9.9,3.8,0
14:28:17.850,-2.41,7.1,9.5,4.2,0
14:28:17.860,-2.22,6.9,9.1,4.6,0
14:28:17.870,-2.12,6.7,8.8,4.9,0
14:28:17.880,-2,6.5,8.4,5.3,0
14:28:17.890,-1.88,6.4,8.1,5.6,0
14:28:17.900,-1.82,6.2,7.8,5.9,0
14:28:17.910,-1.74,6,7.5,6.2,0
14:28:17.920,-1.6,5.9,7.2,6.5,0
14:28:17.930,-1.48,5.8,7,6.7,0
14:28:17.940,-1.42,5.7,6.7,7,0
14:28:17.950,-1.4,5.5,6.5,7.2,0
14:28:17.990,-1.31,5.5,6.3,7.4,0
14:28:18.000,-1.11,5.4,6.1,7.6,0
14:28:18.010,-0.96,5.3,5.9,7.8,0
14:28:18.020,-0.99,5.2,5.7,8,0
14:28:18.030,-1.06,5.1,5.6,8.2,0
14:28:18.040,-1,5.1,5.4,8.3,0
14:28:18.050,-0.86,5,5.2,8.5,0
14:28:18.060,-0.79,5,5.1,8.6,0
14:28:18.070,-0.77,4.9,5,8.7,0
14:28:18.080,-0.73,4.9,4.9,8.9,0
14:28:18.090,-0.71,4.8,4.7,9,0
14:28:18.100,-0.69,4.8,4.6,9.1,0
14:28:18.110,-0.6,4.7,4.5,9.2,0
14:28:18.120,-0.54,4.7,4.4,9.3,0
14:28:18.130,-0.54,4.6,4.3,9.4,0
14:28:18.140,-0.53,4.6,4.2,9.5,0
14:28:18.150,-0.49,4.6,4.2,9.6,0
14:28:18.160,-0.47,4.6,4.1,9.7,0
14:28:18.170,-0.47,4.5,4,9.7,0
14:28:18.180,-0.41,4.5,3.9,9.8,0
14:28:18.190,-0.37,4.5,3.9,9.9,0
14:28:18.200,-0.36,4.5,3.8,9.9,0
14:28:18.210,-0.39,4.4,3.7,10,0
14:28:18.220,-0.36,4.4,3.7,10.1,0
14:28:18.230,-0.36,4.4,3.6,10.1,0
14:28:18.240,-0.3,4.3,3.6,10.2,0
14:28:18.250,-0.17,4.3,3.5,10.2,0
14:28:18.260,-0.13,4.3,3.5,10.2,0
14:28:18.270,-0.25,4.3,3.5,10.2,0
14:28:18.280,-0.29,4.3,3.5,10.3,0
14:28:18.290,-0.19,4.3,3.4,10.3,0
14:28:18.300,-0.11,4.3,3.4,10.3,0
14:28:18.310,-0.14,4.3,3.4,10.3,0
14:28:18.320,-0.22,4.3,3.4,10.3,0
14:28:18.330,-0.21,4.2,3.4,10.3,0
14:28:18.340,-0.14,4.2,3.4,10.3,0
14:28:18.350,-0.15,4.2,3.4,10.3,0
14:28:18.360,-0.14,4.2,3.4,10.3,0
14:28:18.370,-0.12,4.2,3.4,10.3,0
14:28:18.380,-0.13,4.2,3.4,10.3,0
14:28:18.390,0,4.2,3.4,10.3,0
14:28:18.400,0,4.2,3.4,10.3,0
14:28:18.410,0,4.1,3.4,10.3,0
14:28:18.420,-0.21,4.1,3.4,10.4,0
14:28:18.430,-0.18,4.1,3.4,10.4,0
14:28:18.440,-0.07,4.1,3.4,10.4,0
14:28:18.450,0,4.1,3.4,10.4,0
14:28:18.460,0,4.1,3.4,10.4,0
14:28:18.470,0,4.1,3.4,10.4,0
14:28:18.480,-0.12,4.1,3.4,10.4,0
14:28:18.490,-0.05,4.1,3.4,10.4,0
14:28:18.500,0,4.1,3.4,10.4,0
14:28:18.510,0,4.1,3.4,10.4,0
14:28:18.520,0,4.1,3.4,10.4,0
14:28:18.530,0,4.1,3.4,10.4,0
14:28:18.540,0,4.1,3.4,10.4,0
14:28:18.550,0,4.1,3.4,10.4,0
14:28:18.560,0,4.1,3.4,10.4,0
14:28:18.570,0,4.1,3.4,10.4,0
14:28:18.580,0,4.1,3.4,10.4,0
14:28:18.590,0.7,4.4,0,10.4,0
14:28:18.600,1.94,4.9,0.2,10.4,0
14:28:18.610,2.89,5.7,0.6,10.4,0
14:28:18.620,3.95,6.7,1.2,10.4,0
14:28:18.630,5.17,7.9,1.9,10.4,0
14:28:18.640,6.25,9.2,2.9,10.4,0
14:28:18.650,6.79,10.4,4,0,0
14:28:18.660,6.8,11.5,5.1,0,0
14:28:18.670,6.62,12.6,6.2,0,0
14:28:18.680,6.62,13.6,7.3,0,0
14:28:18.690,6.72,14.6,8.5,0,0
14:28:18.700,6.71,15.6,9.6,0,0
14:28:18.710,6.7,16.5,10.7,0,0
14:28:18.720,6.68,17.5,11.8,0,0
14:28:18.730,6.68,18.5,12.9,0,0
14:28:18.740,6.7,19.5,14,0,0
14:28:18.750,6.75,20.5,15.2,0,0
14:28:18.760,6.68,21.4,16.3,0,0
14:28:18.770,6.61,22.4,17.4,0,0
14:28:18.780,6.68,23.4,18.5,0,0
14:28:18.790,6.69,24.3,19.6,0,0
14:28:18.800,6.61,25.3,20.7,0,0
14:28:18.810,6.59,26.3,21.8,0,0
14:28:18.820,6.64,27.3,22.9,0,0
14:28:18.830,6.68,28.3,24,0,0
14:28:18.840,6.57,29.3,25.1,0,0
14:28:18.850,6.19,30.2,26.2,0,0
14:28:18.860,5.31,30.8,27.2,0,0
14:28:18.870,4.16,31.3,28,0,0
14:28:18.880,3.18,31.7,28.6,0,0
14:28:18.890,2.18,31.7,29,0,0
14:28:18.900,-2.03,30.7,29,0,0
14:28:18.910,-4.72,28.4,28.4,0,0
14:28:18.920,-6.53,25.5,27.4,0,0
14:28:18.930,-6.95,23.1,26.3,0,0
14:28:18.940,-6.08,21.4,25.2,0,0
14:28:18.950,-5.34,20.1,24.3,0,0
14:28:18.960,-5.54,18.7,23.4,1.7,0
14:28:18.970,-5.92,17.3,22.4,2.7,0
14:28:18.980,-6.19,15.9,21.4,3.7,0
14:28:18.990,-6.43,14.5,20.4,4.8,0
14:28:18.940,-6.29,13.4,19.3,5.8,0
14:28:18.950,-5.75,12.6,18.3,6.8,0
14:28:18.960,-5.26,11.8,17.4,7.7,0
14:28:18.970,-4.93,11.2,16.5,8.6,0
14:28:18.980,-4.53,10.5,15.7,9.4,0
14:28:18.990,-4.15,10,15,10.1,0
14:28:19.000,-3.84,9.5,14.3,10.8,0
14:28:19.010,-3.66,9.1,13.7,11.4,0
14:28:19.020,-3.54,8.7,13.1,12,0
14:28:19.030,-3.29,8.3,12.6,12.6,0
14:28:19.040,-2.98,8.1,12,13.1,0
14:28:19.050,-2.81,7.8,11.5,13.6,0
14:28:19.060,-2.71,7.5,11.1,14,0
14:28:19.070,-2.52,7.2,10.7,14.5,0
14:28:19.080,-2.35,7,10.2,14.9,0
14:28:19.090,-2.21,6.8,9.9,15.2,0
14:28:19.100,-2.07,6.6,9.5,15.6,0
14:28:19.110,-1.9,6.5,9.2,15.9,0
14:28:19.120,-1.74,6.3,8.9,16.2,0
14:28:19.130,-1.65,6.1,8.6,16.5,0
14:28:19.140,-1.63,6,8.3,16.8,0
14:28:19.150,-1.59,5.8,8.1,17.1,0
14:28:19.160,-1.48,5.7,7.8,17.3,0
14:28:19.170,-1.31,5.7,7.6,17.5,0
14:28:19.180,-1.18,5.6,7.4,17.8,0
14:28:19.190,-1.15,5.5,7.2,17.9,0
14:28:19.200,-1.16,5.4,7,18.1,0
14:28:19.210,-1.13,5.3,6.8,18.3,0
14:28:19.220,-0.99,5.3,6.6,18.5,0
14:28:19.230,-0.88,5.2,6.5,18.7,0
14:28:19.240,-0.91,5.1,6.3,18.8,0
14:28:19.250,-0.89,5,6.2,19,0
14:28:19.260,-0.8,4.9,6,19.1,0
14:28:19.270,-0.75,4.9,5.9,19.2,0
14:28:19.280,-0.74,4.8,5.8,19.3,0
14:28:19.290,-0.66,4.8,5.6,19.5,0
14:28:19.300,-0.59,4.7,5.5,19.6,0
14:28:19.310,-0.57,4.7,5.4,19.7,0
14:28:19.320,-0.58,4.7,5.4,19.8,0
14:28:19.330,-0.51,4.6,5.3,19.8,0
14:28:19.340,-0.41,4.6,5.2,19.9,0
14:28:19.350,-0.41,4.6,5.1,20,0
14:28:19.360,-0.41,4.6,5,20.1,0
14:28:19.370,-0.35,4.6,5,20.1,0
14:28:19.380,-0.36,4.5,4.9,20.2,0
14:28:19.390,-0.4,4.5,4.9,20.2,0
14:28:19.400,-0.41,4.4,4.8,20.3,0
14:28:19.410,-0.37,4.4,4.7,20.4,0
14:28:19.420,-0.32,4.4,4.7,20.4,0
14:28:19.430,-0.29,4.4,4.6,20.5,0
14:28:19.440,-0.32,4.3,4.6,20.5,0
14:28:19.450,-0.35,4.3,4.5,20.6,0
14:28:19.460,-0.29,4.3,4.5,20.6,0
14:28:19.470,-0.2,4.3,4.4,20.6,0
14:28:19.480,-0.13,4.3,4.4,20.6,0
14:28:19.490,-0.21,4.3,4.4,20.7,0
14:28:19.500,-0.31,4.3,4.4,20.7,0
14:28:19.510,-0.29,4.3,4.3,20.8,0
14:28:19.520,-0.13,4.3,4.3,20.8,0
14:28:19.530,0,4.3,4.3,20.8,0
14:28:19.540,0,4.3,4.3,20.8,0
14:28:19.550,-0.21,4.2,4.3,20.8,0
14:28:19.560,-0.18,4.2,4.3,20.8,0
14:28:19.570,-0.09,4.2,4.3,20.8,0
14:28:19.580,-0.11,4.2,4.3,20.8,0
14:28:19.590,-0.16,4.2,4.3,20.8,0
14:28:19.600,-0.08,4.2,4.3,20.8,0
14:28:19.610,0,4.2,4.3,20.8,0
14:28:19.620,0,4.1,4.3,20.8,0
14:28:19.630,0,4.1,4.3,20.8,0
14:28:19.640,-0.16,4.1,4.3,20.8,0
14:28:19.650,-0.08,4.1,4.3,20.8,0
14:28:19.660,-0.13,4.1,4.3,20.8,0
14:28:19.670,-0.11,4.1,4.3,20.8,0
14:28:19.680,0,4.1,4.3,20.8,0
14:28:19.690,0.15,4.2,4.3,20.8,0
14:28:19.700,1.43,4.8,0.1,20.8,0
14:28:19.710,2.56,5.4,0.4,20.8,0
14:28:19.720,2.94,6.1,0.9,20.8,0
14:28:19.730,3.83,7.1,1.4,20.8,0
14:28:19.740,5.22,8.2,2.2,0,0
14:28:19.750,6.38,9.5,3.2,0,0
14:28:19.760,6.89,10.7,4.3,0,0
14:28:19.770,6.84,11.8,5.4,0,0
14:28:19.780,6.71,12.8,6.5,0,0
14:28:19.790,6.71,13.8,7.7,0,0
14:28:19.800,6.7,14.9,8.8,0,0
14:28:19.810,6.7,15.9,9.9,0,0
14:28:19.820,6.75,16.9,11,0,0
14:28:19.830,6.68,17.9,12.1,0,0
14:28:19.840,6.71,18.9,13.2,0,0
14:28:19.850,6.68,19.9,14.4,0,0
14:28:19.860,6.67,20.8,15.5,0,0
14:28:19.870,6.71,21.8,16.6,0,0
14:28:19.880,6.79,22.7,17.7,0,0
14:28:19.890,6.7,23.7,18.8,0,0
14:28:19.900,6.64,24.7,20,0,0
14:28:19.910,6.6,25.7,21.1,0,0
14:28:19.920,6.61,26.7,22.2,0,0
14:28:19.930,6.61,27.8,23.3,0,0
14:28:19.940,6.61,28.8,24.4,0,0
14:28:19.970,6.5,29.8,25.5,0,0
14:28:19.980,5.97,30.5,26.5,0,0
14:28:19.990,4.94,31.1,27.4,0,0
14:28:20.000,3.83,31.5,28.1,0,0
14:28:20.010,3.05,31.9,28.7,0,0
14:28:20.020,2.49,32.2,29.2,0,0
14:28:20.030,1.84,32.3,29.5,0,0
14:28:20.040,0.99,32.3,29.8,0,0
14:28:20.050,0,32.1,29.8,0,0
14:28:20.060,-0.12,31.9,29.8,0,0
14:28:20.070,0.2,31.6,29.8,0,0
14:28:20.080,0.19,31.2,29.8,0,0
14:28:20.090,0,30.8,29.8,0,0
14:28:20.100,0,30.5,29.8,0,0
14:28:20.110,0,30.2,29.8,0,0
14:28:20.120,0.23,29.9,29.9,0,0
14:28:20.130,0.22,29.8,29.9,0,0
14:28:20.140,0.15,29.7,29.9,0,0
14:28:20.150,-1.13,29.4,29.8,0,0
14:28:20.160,-4.11,27.7,29.4,0,0
14:28:20.170,-7.23,24.6,28.5,0,0
14:28:20.180,-8.57,21.7,27.1,1.4,0
14:28:20.190,-7.73,19.9,25.8,2.7,0
14:28:20.200,-6.69,18.4,24.6,3.9,0
14:28:20.210,-6.91,16.7,23.4,5.1,0
14:28:20.220,-7.01,15.1,22.3,6.2,0
14:28:20.230,-6.37,14,21.2,7.3,0
14:28:20.240,-5.66,13.2,20.2,8.3,0
14:28:20.250,-5.38,12.4,19.2,9.3,0
14:28:20.260,-5.2,11.6,18.4,10.2,0
14:28:20.270,-4.92,11,17.5,11,0
14:28:20.280,-4.54,10.5,16.7,11.8,0
14:28:20.290,-4.18,10,16,12.5,0
14:28:20.300,-3.94,9.5,15.3,13.2,0
14:28:20.310,-3.78,9.2,14.7,13.8,0
14:28:20.320,-3.54,8.8,14.1,14.4,0
14:28:20.330,-3.25,8.4,13.5,15,0
14:28:20.340,-3,8.1,13,15.5,0
14:28:20.350,-2.83,7.8,12.5,16,0
14:28:20.360,-2.69,7.5,12,16.5,0
14:28:20.370,-2.51,7.3,11.6,16.9,0
14:28:20.380,-2.35,7,11.2,17.3,0
14:28:20.390,-2.24,6.8,10.8,17.7,0
14:28:20.400,-2.1,6.7,10.5,18.1,0
14:28:20.410,-1.98,6.5,10.1,18.4,0
14:28:20.420,-1.87,6.4,9.8,18.7,0
14:28:20.430,-1.74,6.2,9.5,19,0
14:28:20.440,-1.66,6.1,9.2,19.3,0
14:28:20.450,-1.57,6,8.9,19.6,0
14:28:20.460,-1.48,5.9,8.7,19.8,0
14:28:20.470,-1.36,5.8,8.5,20.1,0
14:28:20.480,-1.28,5.6,8.2,20.3,0
14:28:20.490,-1.21,5.5,8,20.5,0
14:28:20.500,-1.11,5.5,7.8,20.7,0
14:28:20.510,-1.06,5.4,7.7,20.9,0
14:28:20.520,-1.08,5.3,7.5,21,0
14:28:20.530,-1.04,5.2,7.3,21.2,0
14:28:20.540,-0.91,5.2,7.1,21.4,0
14:28:20.550,-0.86,5.1,7,21.5,0
14:28:20.560,-0.9,5,6.8,21.7,0
14:28:20.570,-0.9,5,6.7,21.8,0
14:28:20.580,-0.85,4.9,6.6,22,0
14:28:20.590,-0.83,4.9,6.4,22.1,0
14:28:20.600,-0.72,4.9,6.3,22.2,0
14:28:20.610,-0.56,4.8,6.2,22.3,0
14:28:20.620,-0.53,4.8,6.1,22.4,0
14:28:20.630,-0.61,4.7,6,22.5,0
14:28:20.640,-0.62,4.6,5.9,22.6,0
14:28:20.650,-0.57,4.6,5.8,22.7,0
14:28:20.660,-0.48,4.6,5.7,22.8,0
14:28:20.670,-0.46,4.6,5.6,22.9,0
14:28:20.680,-0.45,4.5,5.6,23,0
14:28:20.690,-0.39,4.5,5.5,23,0
14:28:20.700,-0.37,4.5,5.4,23.1,0
14:28:20.710,-0.44,4.5,5.4,23.2,0
14:28:20.720,-0.47,4.5,5.3,23.2,0
14:28:20.730,-0.39,4.4,5.2,23.3,0
14:28:20.740,-0.36,4.4,5.1,23.4,0
14:28:20.750,-0.34,4.4,5.1,23.4,0
14:28:20.760,-0.3,4.4,5,23.5,0
14:28:20.770,-0.27,4.4,5,23.5,0
14:28:20.780,-0.27,4.4,4.9,23.6,0
14:28:20.790,-0.3,4.3,4.9,23.6,0
14:28:20.800,-0.29,4.3,4.8,23.7,0
14:28:20.810,-0.21,4.3,4.8,23.7,0
14:28:20.820,-0.15,4.3,4.8,23.7,0
14:28:20.830,-0.19,4.3,4.8,23.7,0
14:28:20.840,-0.25,4.2,4.8,23.7,0
14:28:20.850,-0.22,4.2,4.7,23.8,0
14:28:20.860,-0.16,4.2,4.7,23.8,0
14:28:20.870,-0.14,4.3,4.7,23.8,0
14:28:20.880,-0.21,4.2,4.7,23.8,0
14:28:20.890,-0.27,4.2,4.7,23.9,0
14:28:20.900,-0.27,4.2,4.6,23.9,0
14:28:20.910,-0.12,4.2,4.6,23.9,0
14:28:20.920,0,4.2,4.6,23.9,0
14:28:20.930,0,4.2,4.6,23.9,0
14:28:20.940,-0.14,4.2,4.6,23.9,0
14:28:20.950,-0.11,4.2,4.6,23.9,0
14:28:20.960,0,4.1,4.6,23.9,0
14:28:20.970,0,4.1,4.6,23.9,0
14:28:20.990,0,4.1,4.6,23.9,0
14:28:21.000,-0.11,4.1,4.6,23.9,0
14:28:21.010,0,4.1,4.6,23.9,0
14:28:21.020,0,4.1,4.6,23.9,0
14:28:21.030,0,4.1,4.6,23.9,0
14:28:21.040,-0.16,4.1,4.6,23.9,0
14:28:21.050,-0.13,4.2,4.6,23.9,0
14:28:21.060,-0.13,4.2,4.6,23.9,0
14:28:21.070,-0.11,4.1,4.6,23.9,0
14:28:21.080,-0.08,4.1,4.6,23.9,0
14:28:21.090,0,4.1,4.6,23.9,0
14:28:21.100,0.4,4.3,4.6,23.9,0
14:28:21.110,1.69,4.8,0.1,23.9,0
14:28:21.120,2.71,5.5,0.5,23.9,0
14:28:21.130,3.63,6.4,1,23.9,0
14:28:21.140,5.14,7.7,1.8,0,0
14:28:21.150,6.51,9.1,2.7,0,0
14:28:21.160,6.99,10.3,3.9,0,0
14:28:21.170,6.73,11.5,5,0,0
14:28:21.180,6.55,12.5,6.1,0,0
14:28:21.190,6.64,13.6,7.2,0,0
14:28:21.200,6.67,14.6,8.3,0,0
14:28:21.210,6.71,15.6,9.4,0,0
14:28:21.220,6.73,16.6,10.6,0,0
14:28:21.230,6.73,17.6,11.7,0,0
14:28:21.240,6.69,18.6,12.8,0,0
14:28:21.250,6.67,19.6,13.9,0,0
14:28:21.260,6.73,20.6,15,0,0
14:28:21.270,6.71,21.6,16.2,0,0
14:28:21.280,6.65,22.6,17.3,0,0
14:28:21.290,6.66,23.6,18.4,0,0
14:28:21.300,6.72,24.5,19.5,0,0
14:28:21.310,6.73,25.5,20.6,0,0
14:28:21.320,6.74,26.5,21.7,0,0
14:28:21.330,6.69,27.5,22.8,0,0
14:28:21.340,6.62,28.5,24,0,0
14:28:21.350,6.56,29.5,25.1,0,0
14:28:21.360,6.17,30.3,26.1,0,0
14:28:21.370,5.25,30.9,27.1,0,0
14:28:21.380,4.13,31.4,27.9,0,0
14:28:21.390,3.3,31.8,28.5,0,0
14:28:21.400,2.65,32.1,29,0,0
14:28:21.410,1.92,32.2,29.4,0,0
14:28:21.420,1.1,32.3,29.6,0,0
14:28:21.430,0.24,32.1,29.7,0,0
14:28:21.440,-0.07,31.9,29.7,0,0
14:28:21.450,0,31.6,29.7,0,0
14:28:21.460,0.13,31.3,29.7,0,0
14:28:21.470,0,30.9,29.7,0,0
14:28:21.480,0,30.6,29.7,0,0
14:28:21.490,0,30.3,29.7,0,0
14:28:21.500,0.18,30,29.7,0,0
14:28:21.510,0.22,29.8,29.7,0,0
14:28:21.520,0.25,29.7,29.8,0,0
14:28:21.530,0.25,29.6,29.8,0,0
14:28:21.540,0.27,29.6,29.9,0,0
14:28:21.550,0.34,29.6,29.9,0,0
14:28:21.560,0.41,29.6,30,0,0
14:28:21.570,0.46,29.7,30,0,0
14:28:21.580,0.51,29.7,30.1,0,0
14:28:21.590,0.46,29.7,30.2,0,0
14:28:21.600,-0.55,29.5,30.2,0,0
14:28:21.610,-2.47,28.4,29.9,0,0
14:28:21.620,-4.82,26.2,29.3,0,0
14:28:21.630,-6.53,23.5,28.4,1,0
14:28:21.640,-7.23,21.3,27.2,2.2,0
14:28:21.650,-7.07,19.5,26,3.4,0
14:28:21.660,-6.85,17.9,24.9,4.5,0
14:28:21.670,-6.68,16.4,23.7,5.7,0
14:28:21.680,-6.41,15.2,22.6,6.8,0
14:28:21.690,-6.14,14.1,21.6,7.8,0
14:28:21.700,-5.98,13.1,20.6,8.8,0
14:28:21.710,-5.64,12.3,19.6,9.8,0
14:28:21.720,-5.18,11.6,18.7,10.7,0
14:28:21.730,-4.76,11,17.9,11.5,0
14:28:21.740,-4.47,10.4,17.1,12.3,0
14:28:21.750,-4.24,9.9,16.4,13,0
14:28:21.760,-3.93,9.5,15.7,13.7,0
14:28:21.770,-3.63,9,15.1,14.3,0
14:28:21.780,-3.4,8.7,14.5,14.9,0
14:28:21.790,-3.22,8.3,14,15.4,0
14:28:21.800,-3.1,8,13.4,16,0
14:28:21.810,-2.92,7.7,12.9,16.5,0
14:28:21.820,-2.63,7.5,12.5,16.9,0
14:28:21.830,-2.45,7.2,12,17.4,0
14:28:21.840,-2.35,7,11.6,17.8,0
14:28:21.850,-2.2,6.8,11.3,18.1,0
14:28:21.860,-2.06,6.7,10.9,18.5,0
14:28:21.870,-1.97,6.5,10.6,18.8,0
14:28:21.880,-1.85,6.3,10.3,19.1,0
14:28:21.890,-1.69,6.2,10,19.4,0
14:28:21.900,-1.6,6,9.7,19.7,0
14:28:21.910,-1.56,5.9,9.4,20,0
14:28:21.920,-1.48,5.8,9.2,20.2,0
14:28:21.930,-1.35,5.7,8.9,20.5,0
14:28:21.940,-1.29,5.6,8.7,20.7,0
14:28:21.950,-1.26,5.5,8.5,20.9,0
14:28:21.960,-1.19,5.4,8.3,21.1,0
14:28:21.970,-1.06,5.3,8.1,21.3,0
14:28:21.980,-0.92,5.3,8,21.5,0
14:28:21.990,-0.89,5.2,7.8,21.6,0
14:28:21.010,-0.98,5.1,7.6,21.8,0
14:28:21.020,-0.94,5,7.5,21.9,0
14:28:21.030,-0.83,5,7.3,22.1,0
14:28:21.040,-0.75,4.9,7.2,22.2,0
14:28:21.050,-0.73,4.9,7.1,22.3,0
14:28:21.060,-0.74,4.8,7,22.4,0
14:28:21.070,-0.71,4.8,6.8,22.6,0
14:28:21.080,-0.67,4.7,6.7,22.7,0
14:28:21.090,-0.63,4.7,6.6,22.8,0
14:28:21.100,-0.62,4.6,6.5,22.9,0
14:28:21.110,-0.53,4.6,6.4,23,0
14:28:21.120,-0.43,4.6,6.3,23.1,0
14:28:21.130,-0.48,4.5,6.3,23.1,0
14:28:21.140,-0.53,4.5,6.2,23.2,0
14:28:21.150,-0.4,4.5,6.1,23.3,0
14:28:21.160,-0.26,4.5,6.1,23.4,0
14:28:21.170,-0.33,4.5,6,23.4,0
14:28:21.180,-0.43,4.4,5.9,23.5,0
14:28:21.190,-0.4,4.4,5.9,23.5,0
14:28:21.200,-0.3,4.4,5.8,23.6,0
14:28:21.210,-0.27,4.4,5.8,23.6,0
14:28:21.220,-0.35,4.4,5.7,23.7,0
14:28:21.230,-0.35,4.3,5.7,23.7,0
14:28:21.240,-0.23,4.3,5.6,23.8,0
14:28:21.250,-0.22,4.3,5.6,23.8,0
14:28:21.260,-0.29,4.3,5.5,23.9,0
14:28:21.270,-0.27,4.3,5.5,23.9,0
14:28:21.280,-0.18,4.3,5.5,23.9,0
14:28:21.290,-0.21,4.3,5.5,24,0
14:28:21.300,-0.21,4.3,5.4,24,0
14:28:21.310,-0.11,4.3,5.4,24,0
14:28:21.320,-0.09,4.3,5.4,24,0
14:28:21.330,-0.2,4.3,5.4,24,0
14:28:21.340,-0.21,4.2,5.4,24,0
14:28:21.350,-0.19,4.2,5.4,24,0
14:28:21.360,-0.16,4.2,5.4,24,0
14:28:21.370,-0.12,4.2,5.4,24,0
14:28:21.380,-0.08,4.2,5.4,24,0
14:28:21.390,0,4.2,5.4,24,0
14:28:21.400,0,4.2,5.4,24,0
14:28:21.410,0,4.2,5.4,24,0
14:28:21.420,0,4.2,5.4,24,0
14:28:21.430,0,4.1,5.4,24,0
14:28:21.440,0,4.1,5.4,24,0
14:28:21.450,0,4.1,5.4,24,0
14:28:21.460,0,4.1,5.4,24,0
14:28:21.470,0,4.1,5.4,24,0
14:28:21.480,0,4.1,5.4,24,0
14:28:21.490,0,4.1,5.4,24,0
14:28:21.500,0,4.1,5.4,24,0
14:28:21.510,0,4.1,5.4,24,0
14:28:21.520,0,4.1,5.4,24,0
14:28:21.530,0,4.1,5.4,24,0
14:28:21.540,0,4.1,5.4,24,0
14:28:21.550,0,4.1,5.4,24,0
14:28:21.560,0,4.1,5.4,24,0
14:28:21.570,0,4.1,5.4,24,0
14:28:21.580,0,4.1,5.4,24,0
14:28:21.590,0,4.1,5.4,24,0
14:28:21.600,0,4.1,5.4,24,0
14:28:21.610,0,4,5.4,24,0
14:28:21.620,0,4,5.4,24,0
14:28:21.630,0,4,5.4,24,0
14:28:21.640,0,4,5.4,24,0
14:28:21.650,0,4,5.4,24,0
14:28:21.660,0,4,5.4,24,0
14:28:21.670,0,4,5.4,24,0
14:28:21.680,0,4,5.4,24,0
14:28:21.690,0,4.1,5.4,24,0
14:28:21.700,0,4.1,5.4,24,0
14:28:21.710,0,4.1,5.4,24,0
14:28:21.720,0,4.1,5.4,24,0
14:28:21.730,0,4.1,5.4,24,0
14:28:21.740,0,4.1,5.4,24,0
14:28:21.750,0,4.1,5.4,24,0
14:28:21.760,0,4.1,5.4,24,0
14:28:21.770,0.31,4.2,5.4,24,0
14:28:21.780,0.75,4.4,0,24,0
14:28:21.790,1.46,4.8,0.2,24,0
14:28:21.800,2.61,5.5,0.6,24,0
14:28:21.810,4.05,6.6,1.1,24,0
14:28:21.820,5.57,7.9,1.9,24,0
14:28:21.830,6.65,9.3,2.9,24,0
14:28:21.840,6.94,10.5,4.1,24,0
14:28:21.850,6.7,11.6,5.2,24,0
14:28:21.860,6.61,12.6,6.3,24,0
14:28:21.870,6.74,13.6,7.4,24,0
14:28:21.880,6.83,14.6,8.6,24,0
14:28:21.890,6.76,15.6,9.7,24,0
14:28:21.900,6.7,16.5,10.8,24,0
14:28:21.910,6.76,17.5,11.9,24,0
14:28:21.920,6.82,18.5,13.1,24,0
14:28:21.930,6.79,19.4,14.2,24,0
14:28:21.940,6.75,20.4,15.3,24,0
14:28:21.950,6.71,21.3,16.5,0,0
14:28:21.960,6.67,22.3,17.6,0,0
14:28:21.970,6.68,23.4,18.7,0,0
14:28:21.980,6.68,24.4,19.8,0,0
14:28:21.990,6.72,25.4,20.9,0,0
14:28:22.000,6.71,26.4,22,0,0
14:28:22.010,6.66,27.4,23.1,0,0
14:28:22.050,6.68,28.4,24.3,0,0
14:28:22.060,6.62,29.3,25.4,0,0
14:28:22.070,6.3,30.2,26.4,0,0
14:28:22.080,5.46,30.8,27.4,0,0
14:28:22.090,4.38,31.3,28.3,0,0
14:28:22.100,3.48,31.7,28.9,0,0
14:28:22.110,2.81,32,29.4,0,0
14:28:22.120,2.14,32.2,29.8,0,0
14:28:22.130,1.38,32.3,30.1,0,0
14:28:22.140,0.51,32.2,30.3,0,0
14:28:22.150,-0.14,32,30.3,0,0
14:28:22.160,0,31.7,30.3,0,0
14:28:22.170,0,31.3,30.3,0,0
14:28:22.180,-2.18,30.3,30.1,0,0
14:28:22.190,-5.96,27.5,29.5,0,0
14:28:22.200,-9.31,23.5,28.2,0,0
14:28:22.210,-9.97,20.3,26.5,0,0
14:28:22.220,-8.37,18.6,25,0,0
14:28:22.230,-7.05,17.3,23.7,0,0
14:28:22.240,-6.88,15.8,22.6,0,0
14:28:22.250,-6.68,14.5,21.4,0,0
14:28:22.260,-6.17,13.6,20.4,0,0
14:28:22.270,-5.6,12.7,19.4,0,0
14:28:22.280,-5.23,11.9,18.5,0,0
14:28:22.290,-4.92,11.3,17.6,0,0
14:28:22.300,-4.62,10.7,16.8,0,0
14:28:22.310,-4.33,10.2,16.1,0,0
14:28:22.320,-4.05,9.7,15.4,0,0
14:28:22.330,-3.77,9.2,14.7,0,0
14:28:22.340,-3.53,8.8,14.1,0,0
14:28:22.350,-3.36,8.4,13.6,1.1,0
14:28:22.360,-3.13,8.1,13,1.7,0
14:28:22.370,-2.85,7.8,12.5,2.2,0
14:28:22.380,-2.67,7.6,12.1,2.6,0
14:28:22.390,-2.47,7.3,11.6,3,0
14:28:22.400,-2.3,7.1,11.2,3.4,0
14:28:22.410,-2.24,6.9,10.9,3.8,0
14:28:22.420,-2.14,6.7,10.5,4.2,0
14:28:22.430,-1.95,6.5,10.2,4.5,0
14:28:22.440,-1.82,6.4,9.8,4.8,0
14:28:22.450,-1.77,6.2,9.5,5.1,0
14:28:22.460,-1.65,6.1,9.3,5.4,0
14:28:22.470,-1.54,5.9,9,5.7,0
14:28:22.480,-1.51,5.8,8.7,5.9,0
14:28:22.490,-1.43,5.7,8.5,6.2,0
14:28:22.500,-1.31,5.6,8.3,6.4,0
14:28:22.510,-1.11,5.5,8.1,6.6,0
14:28:22.520,-1.01,5.4,7.9,6.8,0
14:28:22.530,-1.02,5.3,7.7,7,0
14:28:22.540,-1.07,5.2,7.5,7.1,0
14:28:22.550,-1.04,5.1,7.4,7.3,0
14:28:22.560,-0.91,5.1,7.2,7.5,0
14:28:22.570,-0.78,5,7.1,7.6,0
14:28:22.580,-0.72,5,6.9,7.7,0
14:28:22.590,-0.74,5,6.8,7.9,0
14:28:22.600,-0.79,4.9,6.7,8,0
14:28:22.610,-0.73,4.8,6.6,8.1,0
14:28:22.620,-0.56,4.8,6.5,8.2,0
14:28:22.630,-0.53,4.7,6.4,8.3,0
14:28:22.640,-0.6,4.7,6.3,8.4,0
14:28:22.650,-0.59,4.6,6.2,8.5,0
14:28:22.660,-0.46,4.6,6.1,8.6,0
14:28:22.670,-0.39,4.6,6,8.6,0
14:28:22.680,-0.44,4.5,6,8.7,0
14:28:22.690,-0.38,4.5,5.9,8.8,0
14:28:22.700,-0.3,4.5,5.8,8.8,0
14:28:22.710,-0.32,4.5,5.8,8.9,0
14:28:22.720,-0.37,4.4,5.7,9,0
14:28:22.730,-0.33,4.4,5.7,9,0
14:28:22.740,-0.24,4.4,5.6,9.1,0
14:28:22.750,-0.18,4.4,5.6,9.1,0
14:28:22.760,-0.23,4.3,5.6,9.1,0
14:28:22.770,-0.2,4.3,5.6,9.1,0
14:28:22.780,-0.13,4.3,5.6,9.1,0
14:28:22.790,-0.13,4.3,5.6,9.1,0
14:28:22.800,-0.23,4.2,5.5,9.1,0
14:28:22.810,-0.23,4.2,5.5,9.2,0
14:28:22.820,-0.13,4.2,5.5,9.2,0
14:28:22.830,-0.07,4.2,5.5,9.2,0
14:28:22.840,-0.12,4.2,5.5,9.2,0
14:28:22.850,-0.1,4.2,5.5,9.2,0
14:28:22.860,-0.07,4.2,5.5,9.2,0
14:28:22.870,0,4.2,5.5,9.2,0
14:28:22.880,0,4.2,5.5,9.2,0
14:28:22.890,0,4.2,5.5,9.2,0
14:28:22.900,0,4.2,5.5,9.2,0
14:28:22.910,0,4.2,5.5,9.2,0
14:28:22.920,0,4.2,5.5,9.2,0
14:28:22.930,0,4.2,5.5,9.2,0
14:28:22.940,0,4.1,5.5,9.2,0
14:28:22.950,0,4.1,5.5,9.2,0
14:28:22.960,0,4.1,5.5,9.2,0
14:28:22.970,0,4.1,5.5,9.2,0
14:28:22.980,0,4.1,5.5,9.2,0
14:28:22.990,0,4.1,5.5,9.2,0
14:28:23.000,0,4.1,5.5,9.2,0
14:28:23.010,0,4.1,5.5,9.2,0
14:28:23.020,0,4.1,5.5,9.2,0
14:28:23.030,0,4,5.5,9.2,0
14:28:23.040,-0.14,4,5.5,9.2,0
14:28:23.050,-0.16,4,5.5,9.2,0
14:28:23.020,0,4,5.5,9.2,0
14:28:23.030,0,4.1,5.5,9.2,0
14:28:23.040,0.34,4.2,5.5,9.2,0
14:28:23.050,0.54,4.3,0.1,9.2,0
14:28:23.060,0.65,4.5,0.2,9.2,0
14:28:23.070,0.79,4.7,0.3,9.2,0
14:28:23.080,1.08,4.9,0.4,9.2,0
14:28:23.090,1.6,5.3,0.7,9.2,0
14:28:23.100,2.19,5.8,1,9.2,0
14:28:23.110,2.65,6.4,1.4,0,0
14:28:23.120,3.04,7.1,1.8,0,0
14:28:23.130,3.51,7.8,2.4,0,0
14:28:23.140,4.18,8.6,3,0,0
14:28:23.150,5.27,9.6,3.8,0,0
14:28:23.160,6.22,10.8,4.8,0,0
14:28:23.170,6.63,11.9,5.8,0,0
14:28:23.180,6.64,13,7,0,0
14:28:23.190,6.67,14,8.1,0,0
14:28:23.200,6.7,15,9.2,0,0
14:28:23.210,6.76,16,10.3,0,0
14:28:23.220,6.81,16.9,11.4,0,0
14:28:23.230,6.78,17.9,12.6,0,0
14:28:23.240,6.81,18.8,13.7,0,0
14:28:23.250,6.85,19.7,14.8,0,0
14:28:23.260,6.75,20.7,16,0,0
14:28:23.270,6.66,21.6,17.1,0,0
14:28:23.280,6.72,22.6,18.2,0,0
14:28:23.290,6.72,23.6,19.3,0,0
14:28:23.300,6.66,24.6,20.4,0,0
14:28:23.310,6.62,25.6,21.5,0,0
14:28:23.320,6.6,26.7,22.6,0,0
14:28:23.330,6.64,27.7,23.7,0,0
14:28:23.340,6.61,28.6,24.8,0,0
14:28:23.350,6.54,29.6,25.9,0,0
14:28:23.360,6.13,30.4,27,0,0
14:28:23.370,5.08,30.9,27.9,0,0
14:28:23.380,3.99,31.4,28.7,0,0
14:28:23.390,3.25,31.7,29.3,0,0
14:28:23.400,2.68,32,29.8,0,0
14:28:23.410,1.97,32.1,30.2,0,0
14:28:23.420,1.07,32.1,30.4,0,0
14:28:23.430,0.37,32,30.5,0,0
14:28:23.440,0.15,31.7,30.6,0,0
14:28:23.450,0,31.5,30.6,0,0
14:28:23.460,-1.44,30.7,30.5,0,0
14:28:23.470,-4.25,28.7,30,0,0
14:28:23.480,-6.75,25.7,29.1,0,0
14:28:23.490,-7.69,23,27.9,0,0
14:28:23.500,-6.99,21.2,26.6,0,0
14:28:23.510,-5.86,19.9,25.6,0,0
14:28:23.520,-6.04,18.4,24.6,1,0
14:28:23.530,-6.93,16.5,23.5,2,0
14:28:23.540,-7.11,15,22.3,3.2,0
14:28:23.550,-6.42,14,21.2,4.3,0
14:28:23.560,-5.67,13.1,20.2,5.3,0
14:28:23.570,-5.37,12.3,19.3,6.3,0
14:28:23.580,-5.19,11.5,18.4,7.1,0
14:28:23.590,-4.83,10.9,17.5,8,0
14:28:23.600,-4.39,10.3,16.8,8.7,0
14:28:23.610,-4.08,9.8,16.1,9.4,0
14:28:23.620,-3.9,9.4,15.4,10.1,0
14:28:23.630,-3.66,9,14.8,10.7,0
14:28:23.640,-3.38,8.6,14.2,11.3,0
14:28:23.650,-3.11,8.3,13.7,11.9,0
14:28:23.660,-2.89,8,13.2,12.4,0
14:28:23.670,-2.71,7.6,12.7,12.8,0
14:28:23.680,-2.59,7.4,12.3,13.3,0
14:28:23.690,-2.51,7.1,11.8,13.7,0
14:28:23.700,-2.33,6.9,11.4,14.1,0
14:28:23.710,-2.09,6.7,11.1,14.5,0
14:28:23.720,-1.89,6.5,10.7,14.8,0
14:28:23.730,-1.8,6.3,10.4,15.1,0
14:28:23.740,-1.75,6.2,10.1,15.4,0
14:28:23.750,-1.66,6,9.8,15.7,0
14:28:23.760,-1.6,5.8,9.6,16,0
14:28:23.770,-1.5,5.7,9.3,16.2,0
14:28:23.780,-1.33,5.7,9.1,16.5,0
14:28:23.790,-1.22,5.6,8.9,16.7,0
14:28:23.800,-1.19,5.5,8.7,16.9,0
14:28:23.810,-1.17,5.4,8.5,17.1,0
14:28:23.820,-1.16,5.2,8.3,17.3,0
14:28:23.830,-1.09,5.2,8.1,17.4,0
14:28:23.840,-0.93,5.1,7.9,17.6,0
14:28:23.850,-0.84,5,7.8,17.8,0
14:28:23.860,-0.8,5,7.6,17.9,0
14:28:23.870,-0.71,4.9,7.5,18,0
14:28:23.880,-0.64,4.9,7.4,18.1,0
14:28:23.890,-0.65,4.8,7.3,18.2,0
14:28:23.900,-0.65,4.7,7.2,18.3,0
14:28:23.910,-0.53,4.7,7.1,18.4,0
14:28:23.920,-0.48,4.7,7,18.5,0
14:28:23.930,-0.62,4.6,6.9,18.6,0
14:28:23.940,-0.63,4.6,6.8,18.7,0
14:28:23.950,-0.46,4.6,6.7,18.8,0
14:28:23.960,-0.38,4.5,6.6,18.9,0
14:28:23.970,-0.38,4.5,6.6,18.9,0
14:28:23.980,-0.31,4.4,6.5,19,0
14:28:23.990,-0.23,4.4,6.5,19.1,0
14:28:24.000,-0.26,4.4,6.4,19.1,0
14:28:24.010,-0.31,4.3,6.4,19.1,0
14:28:24.020,-0.29,4.3,6.3,19.2,0
14:28:24.050,-0.24,4.3,6.3,19.2,0
14:28:24.060,-0.26,4.3,6.3,19.3,0
14:28:24.070,-0.28,4.3,6.2,19.3,0
14:28:24.080,-0.31,4.3,6.2,19.4,0
14:28:24.090,-0.3,4.3,6.1,19.4,0
14:28:24.100,-0.19,4.3,6.1,19.4,0
14:28:24.110,-0.13,4.2,6.1,19.4,0
14:28:24.120,-0.22,4.2,6.1,19.5,0
14:28:24.130,-0.19,4.2,6.1,19.5,0
14:28:24.140,0,4.2,6.1,19.5,0
14:28:24.150,0,4.2,6.1,19.5,0
14:28:24.160,0,4.1,6.1,19.5,0
14:28:24.170,0,4.1,6.1,19.5,0
14:28:24.180,-0.15,4.1,6.1,19.5,0
14:28:24.190,0,4.1,6.1,19.5,0
14:28:24.200,0,4.2,6.1,19.5,0
14:28:24.210,0,4.1,6.1,19.5,0
14:28:24.220,0,4.1,6.1,19.5,0
14:28:24.230,0,4.1,6.1,19.5,0
14:28:24.240,0,4.1,6.1,19.5,0
14:28:24.250,0,4.1,6.1,19.5,0
14:28:24.260,0,4.1,6.1,19.5,0
14:28:24.270,0,4.1,6.1,19.5,0
14:28:24.280,0,4.1,6.1,19.5,0
14:28:24.290,0,4.1,6.1,19.5,0
14:28:24.300,0,4.1,6.1,19.5,0
14:28:24.310,0,4.1,6.1,19.5,0
14:28:24.320,0,4.1,6.1,19.5,0
14:28:24.330,0,4.1,6.1,19.5,0
14:28:24.340,0,4.1,6.1,19.5,0
14:28:24.350,0,4.1,6.1,19.5,0
14:28:24.360,0,4.1,6.1,19.5,0
14:28:24.370,0,4.1,6.1,19.5,0
14:28:24.380,0,4.1,6.1,19.5,0
14:28:24.390,0,4.1,6.1,19.5,0
14:28:24.400,0,4.1,6.1,19.5,0
14:28:24.410,0,4.1,6.1,19.5,0
14:28:24.420,0,4.1,6.1,19.5,0
14:28:24.430,0,4.1,6.1,19.5,0
14:28:24.440,0,4.1,6.1,19.5,0
14:28:24.450,0,4.1,6.1,19.5,0
14:28:24.460,0,4.1,6.1,19.5,0
14:28:24.470,0,4.1,6.1,19.5,0
14:28:24.480,0,4.1,6.1,19.5,0
14:28:24.490,0,4.1,6.1,19.5,0
14:28:24.500,0,4.1,6.1,19.5,0
14:28:24.510,0,4.1,6.1,19.5,0
14:28:24.520,0,4.1,6.1,19.5,0
14:28:24.530,0,4.1,6.1,19.5,0
14:28:24.540,0,4.1,6.1,19.5,0
14:28:24.550,0.36,4.3,6.1,19.5,0
14:28:24.560,0.94,4.5,0.1,19.5,0
14:28:24.570,1.85,5,0.3,19.5,0
14:28:24.580,2.85,5.8,0.7,19.5,0
14:28:24.590,3.87,6.7,1.3,19.5,0
14:28:24.600,4.75,7.8,2,19.5,0
14:28:24.610,5.52,8.8,2.8,19.5,0
14:28:24.620,6.12,9.9,3.8,0,0
14:28:24.630,6.52,11,4.9,0,0
14:28:24.640,6.74,12.1,6,0,0
14:28:24.650,6.68,13.1,7.1,0,0
14:28:24.660,6.65,14.1,8.2,0,0
14:28:24.670,6.78,15.1,9.3,0,0
14:28:24.680,6.78,16.1,10.4,0,0
14:28:24.690,6.76,17,11.6,0,0
14:28:24.700,6.71,18,12.7,0,0
14:28:24.710,6.66,19,13.8,0,0
14:28:24.720,6.67,20,14.9,0,0
14:28:24.730,6.67,20.9,16,0,0
14:28:24.740,6.65,21.9,17.1,0,0
14:28:24.750,6.68,22.9,18.3,0,0
14:28:24.760,6.69,23.9,19.4,0,0
14:28:24.770,6.64,24.8,20.5,0,0
14:28:24.780,6.7,25.8,21.6,0,0
14:28:24.790,6.75,26.8,22.7,0,0
14:28:24.800,6.7,27.8,23.8,0,0
14:28:24.810,6.62,28.7,24.9,0,0
14:28:24.820,6.51,29.7,26,0,0
14:28:24.830,5.99,30.4,27.1,0,0
14:28:24.840,5.05,31,28,0,0
14:28:24.850,4.01,31.4,28.8,0,0
14:28:24.860,3.15,31.8,29.4,0,0
14:28:24.870,2.35,32.1,29.8,0,0
14:28:24.880,1.7,32.2,30.2,0,0
14:28:24.890,1.08,32.2,30.4,0,0
14:28:24.900,0.35,32.1,30.5,0,0
14:28:24.910,0,31.9,30.5,0,0
14:28:24.920,0,31.6,30.5,0,0
14:28:24.930,0.17,31.2,30.5,0,0
14:28:24.940,0.15,30.8,30.5,0,0
14:28:24.950,0.15,30.5,30.5,0,0
14:28:24.960,0.22,30.1,30.5,0,0
14:28:24.970,0.26,29.8,30.6,0,0
14:28:24.980,0.2,29.7,30.6,0,0
14:28:24.990,-0.99,29.3,30.5,0,0
14:28:25.000,-3.43,27.8,30.2,0,0
14:28:25.010,-6.53,24.9,29.3,0,0
14:28:25.020,-8.79,21.7,28.1,0,0
14:28:25.030,-8.89,19.4,26.6,0,0
14:28:25.040,-7.72,17.8,25.2,1.2,0
14:28:25.050,-6.94,16.4,24,2.5,0
14:28:25.030,-6.72,15.1,22.8,3.6,0
14:28:25.040,-6.41,14,21.7,4.7,0
14:28:25.050,-5.94,13.1,20.7,5.7,0
14:28:25.060,-5.42,12.3,19.7,6.7,0
14:28:25.070,-5.04,11.5,18.9,7.5,0
14:28:25.080,-4.71,10.9,18.1,8.3,0
14:28:25.090,-4.45,10.3,17.3,9.1,0
14:28:25.100,-4.18,9.8,16.6,9.8,0
14:28:25.110,-3.9,9.4,15.9,10.5,0
14:28:25.120,-3.69,8.9,15.3,11.1,0
14:28:25.130,-3.57,8.6,14.7,11.7,0
14:28:25.140,-3.28,8.3,14.1,12.3,0
14:28:25.150,-2.93,8,13.6,12.8,0
14:28:25.160,-2.76,7.6,13.1,13.3,0
14:28:25.170,-2.63,7.4,12.7,13.7,0
14:28:25.180,-2.46,7.1,12.2,14.2,0
14:28:25.190,-2.28,6.9,11.8,14.6,0
14:28:25.200,-2.08,6.7,11.5,14.9,0
14:28:25.210,-1.9,6.6,11.2,15.3,0
14:28:25.220,-1.89,6.4,10.8,15.6,0
14:28:25.230,-1.9,6.2,10.5,15.9,0
14:28:25.240,-1.73,6.1,10.2,16.2,0
14:28:25.250,-1.5,6,10,16.5,0
14:28:25.260,-1.42,5.8,9.7,16.7,0
14:28:25.270,-1.44,5.7,9.5,16.9,0
14:28:25.280,-1.38,5.6,9.2,17.2,0
14:28:25.290,-1.23,5.5,9,17.4,0
14:28:25.300,-1.1,5.4,8.8,17.6,0
14:28:25.310,-1.04,5.3,8.6,17.8,0
14:28:25.320,-0.99,5.2,8.5,17.9,0
14:28:25.330,-1.01,5.1,8.3,18.1,0
14:28:25.340,-1,5.1,8.1,18.3,0
14:28:25.350,-0.87,5,8,18.4,0
14:28:25.360,-0.78,5,7.9,18.6,0
14:28:25.370,-0.71,4.9,7.7,18.7,0
14:28:25.380,-0.71,4.8,7.6,18.8,0
14:28:25.390,-0.69,4.8,7.5,18.9,0
14:28:25.400,-0.56,4.7,7.4,19,0
14:28:25.410,-0.49,4.7,7.3,19.1,0
14:28:25.420,-0.56,4.6,7.2,19.2,0
14:28:25.430,-0.58,4.6,7.1,19.3,0
14:28:25.440,-0.48,4.6,7,19.4,0
14:28:25.450,-0.39,4.6,7,19.5,0
14:28:25.460,-0.37,4.5,6.9,19.5,0
14:28:25.470,-0.42,4.5,6.8,19.6,0
14:28:25.480,-0.45,4.5,6.8,19.7,0
14:28:25.490,-0.46,4.5,6.7,19.7,0
14:28:25.500,-0.46,4.4,6.6,19.8,0
14:28:25.510,-0.33,4.4,6.5,19.9,0
14:28:25.520,-0.12,4.4,6.5,19.9,0
14:28:25.530,-0.14,4.4,6.5,19.9,0
14:28:25.540,-0.22,4.3,6.5,19.9,0
14:28:25.550,-0.24,4.3,6.5,20,0
14:28:25.560,-0.21,4.3,6.4,20,0
14:28:25.570,-0.15,4.2,6.4,20,0
14:28:25.580,-0.15,4.2,6.4,20,0
14:28:25.590,-0.14,4.2,6.4,20,0
14:28:25.600,-0.07,4.2,6.4,20,0
14:28:25.610,-0.12,4.2,6.4,20,0
14:28:25.620,-0.22,4.2,6.4,20,0
14:28:25.630,-0.24,4.2,6.4,20.1,0
14:28:25.640,-0.18,4.2,6.4,20.1,0
14:28:25.650,-0.17,4.2,6.4,20.1,0
14:28:25.660,-0.22,4.2,6.3,20.1,0
14:28:25.670,-0.24,4.2,6.3,20.1,0
14:28:25.680,-0.19,4.1,6.3,20.1,0
14:28:25.690,0,4.1,6.3,20.1,0
14:28:25.700,0,4.1,6.3,20.1,0
14:28:25.710,0,4.1,6.3,20.1,0
14:28:25.720,0,4.1,6.3,20.1,0
14:28:25.730,0,4.1,6.3,20.1,0
14:28:25.740,0,4.1,6.3,20.1,0
14:28:25.750,0,4,6.3,20.1,0
14:28:25.760,0,4,6.3,20.1,0
14:28:25.770,0,4.1,6.3,20.1,0
14:28:25.780,0,4.1,6.3,20.1,0
14:28:25.790,0,4.1,6.3,20.1,0
14:28:25.800,0,4.1,6.3,20.1,0
14:28:25.810,0,4.1,6.3,20.1,0
14:28:25.820,0,4.1,6.3,20.1,0
14:28:25.830,0,4.1,6.3,20.1,0
14:28:25.840,0,4.1,6.3,20.1,0
14:28:25.850,0,4,6.3,20.1,0
14:28:25.860,0,4,6.3,20.1,0
14:28:25.870,0,4,6.3,20.1,0
14:28:25.880,0,4,6.3,20.1,0
14:28:25.890,0,4,6.3,20.1,0
14:28:25.900,0,4,6.3,20.1,0
14:28:25.910,0,4,6.3,20.1,0
14:28:25.920,0,4,6.3,20.1,0
14:28:25.930,0,4,6.3,20.1,0
14:28:25.940,0,4.1,6.3,20.1,0
14:28:25.950,0,4.1,6.3,20.1,0
14:28:25.960,0.16,4.1,6.3,20.1,0
14:28:25.970,0.45,4.3,6.3,20.1,0
14:28:25.980,0.82,4.5,0.1,20.1,0
14:28:25.990,1.32,4.8,0.3,20.1,0
14:28:26.000,1.76,5.2,0.5,20.1,0
14:28:26.010,2.06,5.6,0.9,20.1,0
14:28:26.020,2.37,6.2,1.2,20.1,0
14:28:26.030,2.76,6.7,1.7,20.1,0
14:28:26.070,3.19,7.4,2.1,0,0
14:28:26.080,3.83,8.1,2.7,0,0
14:28:26.090,4.74,9.1,3.4,0,0
14:28:26.100,5.87,10.2,4.3,0,0
14:28:26.110,6.75,11.4,5.4,0,0
14:28:26.120,6.95,12.5,6.5,0,0
14:28:26.130,6.79,13.5,7.7,0,0
14:28:26.140,6.6,14.5,8.8,0,0
14:28:26.150,6.58,15.5,9.9,0,0
14:28:26.160,6.68,16.5,11,0,0
14:28:26.170,6.8,17.4,12.1,0,0
14:28:26.180,6.76,18.3,13.2,0,0
14:28:26.190,6.69,19.3,14.4,0,0
14:28:26.200,6.67,20.2,15.5,0,0
14:28:26.210,6.68,21.2,16.6,0,0
14:28:26.220,6.67,22.1,17.7,0,0
14:28:26.230,6.63,23.1,18.8,0,0
14:28:26.240,6.65,24.1,19.9,0,0
14:28:26.250,6.65,25.1,21,0,0
14:28:26.260,6.59,26.1,22.1,0,0
14:28:26.270,6.57,27.2,23.2,0,0
14:28:26.280,6.62,28.2,24.3,0,0
14:28:26.290,6.6,29.2,25.4,0,0
14:28:26.300,6.34,30.1,26.5,0,0
14:28:26.310,5.53,30.8,27.5,0,0
14:28:26.320,4.33,31.3,28.3,0,0
14:28:26.330,3.48,31.6,29,0,0
14:28:26.340,3.05,31.9,29.5,0,0
14:28:26.350,2.4,32.1,30,0,0
14:28:26.360,1.47,32.2,30.3,0,0
14:28:26.370,0.54,32.1,30.5,0,0
14:28:26.380,0,31.9,30.5,0,0
14:28:26.390,0.17,31.7,30.5,0,0
14:28:26.400,0.16,31.4,30.5,0,0
14:28:26.410,0,31,30.5,0,0
14:28:26.420,0,30.7,30.5,0,0
14:28:26.430,-0.11,30.4,30.5,0,0
14:28:26.440,-0.29,30.1,30.5,0,0
14:28:26.450,-1.39,29.4,30.3,0,0
14:28:26.460,-3.02,28,30,0,0
14:28:26.470,-4.5,26,29.3,0,0
14:28:26.480,-5.23,24,28.5,0,0
14:28:26.490,-5.5,22.2,27.6,0,0
14:28:26.500,-5.54,20.7,26.7,0,0
14:28:26.510,-5.58,19.3,25.8,1.8,0
14:28:26.520,-5.75,17.8,24.8,2.7,0
14:28:26.530,-5.83,16.5,23.9,3.7,0
14:28:26.540,-6.16,15.2,22.9,4.7,0
14:28:26.550,-6.44,13.9,21.8,5.8,0
14:28:26.560,-6.14,13,20.8,6.8,0
14:28:26.570,-5.51,12.3,19.8,7.8,0
14:28:26.580,-5.08,11.6,18.9,8.7,0
14:28:26.590,-4.85,10.9,18.1,9.5,0
14:28:26.600,-4.58,10.3,17.3,10.3,0
14:28:26.610,-4.16,9.8,16.6,11,0
14:28:26.620,-3.8,9.3,15.9,11.7,0
14:28:26.630,-3.6,8.9,15.3,12.3,0
14:28:26.640,-3.43,8.5,14.7,12.9,0
14:28:26.650,-3.2,8.2,14.2,13.4,0
14:28:26.660,-2.9,7.9,13.7,13.9,0
14:28:26.670,-2.72,7.6,13.2,14.4,0
14:28:26.680,-2.62,7.3,12.7,14.8,0
14:28:26.690,-2.47,7.1,12.3,15.3,0
14:28:26.700,-2.26,6.9,11.9,15.7,0
14:28:26.710,-2.1,6.7,11.6,16,0
14:28:26.720,-1.91,6.6,11.2,16.3,0
14:28:26.730,-1.75,6.4,10.9,16.7,0
14:28:26.740,-1.72,6.2,10.6,16.9,0
14:28:26.750,-1.67,6,10.4,17.2,0
14:28:26.760,-1.52,5.9,10.1,17.5,0
14:28:26.770,-1.37,5.8,9.9,17.7,0
14:28:26.780,-1.36,5.7,9.6,18,0
14:28:26.790,-1.4,5.5,9.4,18.2,0
14:28:26.800,-1.3,5.5,9.2,18.4,0
14:28:26.810,-1.16,5.4,9,18.6,0
14:28:26.820,-1.07,5.3,8.8,18.8,0
14:28:26.830,-1.06,5.2,8.6,19,0
14:28:26.840,-0.98,5.1,8.4,19.1,0
14:28:26.850,-0.83,5.1,8.3,19.3,0
14:28:26.860,-0.77,5,8.2,19.4,0
14:28:26.870,-0.76,4.9,8,19.6,0
14:28:26.880,-0.72,4.9,7.9,19.7,0
14:28:26.890,-0.74,4.8,7.8,19.8,0
14:28:26.900,-0.7,4.8,7.7,19.9,0
14:28:26.910,-0.57,4.7,7.6,20,0
14:28:26.920,-0.51,4.7,7.5,20.1,0
14:28:26.930,-0.58,4.6,7.4,20.2,0
14:28:26.940,-0.58,4.6,7.3,20.3,0
14:28:26.950,-0.44,4.6,7.2,20.4,0
14:28:26.960,-0.38,4.6,7.1,20.5,0
14:28:26.970,-0.44,4.5,7.1,20.5,0
14:28:26.980,-0.43,4.5,7,20.6,0
14:28:26.990,-0.37,4.5,6.9,20.7,0
14:28:27.000,-0.38,4.4,6.9,20.7,0
14:28:27.010,-0.36,4.4,6.8,20.8,0
14:28:27.020,-0.24,4.4,6.7,20.8,0
14:28:27.030,-0.23,4.4,6.7,20.9,0
14:28:27.040,-0.28,4.3,6.7,20.9,0
14:28:27.050,-0.29,4.3,6.6,21,0
14:28:27.060,-0.26,4.3,6.6,21,0
14:28:27.070,-0.24,4.3,6.5,21.1,0
14:28:27.190,-0.21,4.3,6.5,21.1,0
14:28:27.200,-0.14,4.2,6.5,21.1,0
14:28:27.210,-0.15,4.2,6.5,21.1,0
14:28:27.220,-0.21,4.2,6.5,21.1,0
14:28:27.230,-0.16,4.2,6.5,21.1,0
14:28:27.240,-0.08,4.2,6.5,21.1,0
14:28:27.250,0,4.2,6.5,21.1,0
14:28:27.260,0,4.2,6.5,21.1,0
14:28:27.270,0,4.2,6.5,21.1,0
14:28:27.280,-0.14,4.2,6.5,21.1,0
14:28:27.290,0,4.2,6.5,21.1,0
14:28:27.300,0,4.2,6.5,21.1,0
14:28:27.310,0,4.1,6.5,21.1,0
14:28:27.320,0,4.1,6.5,21.1,0
14:28:27.330,0,4.1,6.5,21.1,0
14:28:27.340,0,4.1,6.5,21.1,0
14:28:27.350,0,4.1,6.5,21.1,0
14:28:27.360,0,4.1,6.5,21.1,0
14:28:27.370,0,4.1,6.5,21.1,0
14:28:27.380,0,4.1,6.5,21.1,0
14:28:27.390,0,4.1,6.5,21.1,0
14:28:27.400,0,4.1,6.5,21.1,0
14:28:27.410,0,4.1,6.5,21.1,0
14:28:27.420,0,4.1,6.5,21.1,0
14:28:27.430,0,4.1,6.5,21.1,0
14:28:27.440,0.33,4.2,6.5,21.1,0
14:28:27.450,1.61,4.8,0.1,21.1,0
14:28:27.460,2.46,5.3,0.5,21.1,0
14:28:27.470,2.63,5.9,0.9,21.1,0
14:28:27.480,3.29,6.8,1.4,21.1,0
14:28:27.490,4.38,7.7,2,21.1,0
14:28:27.500,5.33,8.8,2.8,21.1,0
14:28:27.510,6.15,9.9,3.8,0,0
14:28:27.520,6.67,11.1,4.9,0,0
14:28:27.530,6.71,12.2,6,0,0
14:28:27.540,6.62,13.2,7.1,0,0
14:28:27.550,6.65,14.2,8.2,0,0
14:28:27.560,6.73,15.2,9.3,0,0
14:28:27.570,6.75,16.2,10.4,0,0
14:28:27.580,6.73,17.1,11.6,0,0
14:28:27.590,6.69,18.1,12.7,0,0
14:28:27.600,6.67,19.1,13.8,0,0
14:28:27.610,6.75,20,14.9,0,0
14:28:27.620,6.76,21,16,0,0
14:28:27.630,6.69,21.9,17.2,0,0
14:28:27.640,6.63,22.9,18.3,0,0
14:28:27.650,6.61,23.9,19.4,0,0
14:28:27.660,6.6,24.9,20.5,0,0
14:28:27.670,6.62,25.9,21.6,0,0
14:28:27.680,6.59,27,22.7,0,0
14:28:27.690,6.49,28.1,23.8,0,0
14:28:27.700,6.47,29.1,24.8,0,0
14:28:27.710,6.42,30,25.9,0,0
14:28:27.720,5.82,30.7,26.9,0,0
14:28:27.730,4.72,31.2,27.8,0,0
14:28:27.740,3.63,31.6,28.5,0,0
14:28:27.750,2.81,31.9,29,0,0
14:28:27.760,2.22,32.1,29.5,0,0
14:28:27.770,1.52,32.2,29.8,0,0
14:28:27.780,0.66,32.2,30,0,0
14:28:27.790,-0.16,32,30,0,0
14:28:27.800,-0.11,31.8,30,0,0
14:28:27.810,0,31.5,30,0,0
14:28:27.820,0,31.2,30,0,0
14:28:27.830,-0.17,30.8,30,0,0
14:28:27.840,-0.11,30.5,30,0,0
14:28:27.850,0,30.2,30,0,0
14:28:27.860,0.28,29.9,30,0,0
14:28:27.870,0.35,29.7,30.1,0,0
14:28:27.880,0.36,29.5,30.1,0,0
14:28:27.890,0.39,29.4,30.2,0,0
14:28:27.900,0.41,29.4,30.3,0,0
14:28:27.910,-1.25,29,30.2,0,0
14:28:27.920,-4.09,27.2,29.8,0,0
14:28:27.930,-6.67,24.3,28.9,0,0
14:28:27.940,-7.65,21.8,27.7,0,0
14:28:27.950,-6.98,20.2,26.4,0,0
14:28:27.960,-6.06,18.9,25.3,0,0
14:28:27.970,-5.92,17.5,24.4,0,0
14:28:27.980,-5.7,16.3,23.4,1.9,0
14:28:27.990,-4.99,15.4,22.5,2.8,0
14:28:28.000,-4.35,14.7,21.7,3.6,0
14:28:28.010,-4.09,14,21,4.3,0
14:28:28.020,-3.92,13.4,20.3,4.9,0
14:28:28.030,-3.95,12.6,19.7,5.6,0
14:28:28.040,-4.21,11.9,19,6.3,0
14:28:28.050,-4.5,11.1,18.3,7,0
14:28:28.060,-4.69,10.4,17.5,7.8,0
14:28:28.070,-4.49,9.9,16.7,8.5,0
14:28:28.080,-3.99,9.5,16,9.2,0
14:28:28.090,-3.6,9.1,15.4,9.9,0
14:28:28.100,-3.48,8.6,14.8,10.5,0
14:28:28.110,-3.32,8.3,14.3,11,0
14:28:28.120,-3.09,8,13.7,11.6,0
14:28:28.130,-2.8,7.7,13.2,12.1,0
14:28:28.140,-2.58,7.4,12.8,12.5,0
14:28:28.150,-2.43,7.2,12.4,12.9,0
14:28:28.160,-2.32,6.9,12,13.3,0
14:28:28.170,-2.17,6.7,11.6,13.7,0
14:28:28.180,-2.01,6.6,11.3,14,0
14:28:28.190,-1.82,6.4,10.9,14.4,0
14:28:28.080,-1.71,6.2,10.6,14.6,0
14:28:28.090,-1.68,6.1,10.4,14.9,0
14:28:28.100,-1.68,5.9,10.1,15.2,0
14:28:28.110,-1.57,5.8,9.8,15.5,0
14:28:28.120,-1.43,5.7,9.6,15.7,0
14:28:28.130,-1.31,5.6,9.3,16,0
14:28:28.140,-1.19,5.5,9.1,16.2,0
14:28:28.150,-1.15,5.4,8.9,16.4,0
14:28:28.160,-1.17,5.3,8.7,16.6,0
14:28:28.170,-1.08,5.2,8.5,16.7,0
14:28:28.180,-0.92,5.2,8.4,16.9,0
14:28:28.190,-0.9,5.1,8.2,17.1,0
14:28:28.200,-0.89,5,8.1,17.2,0
14:28:28.210,-0.84,4.9,7.9,17.3,0
14:28:28.220,-0.73,4.9,7.8,17.5,0
14:28:28.230,-0.67,4.8,7.7,17.6,0
14:28:28.240,-0.68,4.8,7.6,17.7,0
14:28:28.250,-0.66,4.7,7.5,17.8,0
14:28:28.260,-0.62,4.7,7.4,17.9,0
14:28:28.270,-0.56,4.7,7.3,18,0
14:28:28.280,-0.5,4.6,7.2,18.1,0
14:28:28.290,-0.48,4.6,7.1,18.2,0
14:28:28.300,-0.44,4.6,7,18.3,0
14:28:28.310,-0.38,4.6,7,18.3,0
14:28:28.320,-0.4,4.5,6.9,18.4,0
14:28:28.330,-0.41,4.5,6.8,18.5,0
14:28:28.340,-0.33,4.4,6.8,18.5,0
14:28:28.350,-0.27,4.4,6.7,18.6,0
14:28:28.360,-0.29,4.4,6.7,18.6,0
14:28:28.370,-0.29,4.4,6.6,18.7,0
14:28:28.380,-0.29,4.4,6.6,18.7,0
14:28:28.390,-0.32,4.3,6.5,18.8,0
14:28:28.400,-0.27,4.3,6.5,18.8,0
14:28:28.410,-0.18,4.3,6.4,18.8,0
14:28:28.420,-0.17,4.3,6.4,18.8,0
14:28:28.430,-0.21,4.3,6.4,18.9,0
14:28:28.440,-0.24,4.3,6.4,18.9,0
14:28:28.450,-0.26,4.3,6.4,18.9,0
14:28:28.460,-0.24,4.3,6.3,19,0
14:28:28.470,-0.18,4.3,6.3,19,0
14:28:28.480,-0.16,4.2,6.3,19,0
14:28:28.490,-0.13,4.2,6.3,19,0
14:28:28.500,-0.12,4.2,6.3,19,0
14:28:28.510,-0.07,4.2,6.3,19,0
14:28:28.520,0,4.2,6.3,19,0
14:28:28.530,0,4.2,6.3,19,0
14:28:28.540,0,4.1,6.3,19,0
14:28:28.550,-0.14,4.1,6.3,19,0
14:28:28.560,-0.11,4.1,6.3,19,0
14:28:28.570,0,4.1,6.3,19,0
14:28:28.580,0,4.1,6.3,19,0
14:28:28.590,0,4.2,6.3,19,0
14:28:28.600,1.81,4.9,0.1,19,0
14:28:28.610,4.05,6,0.6,19,0
14:28:28.620,4.74,7.1,1.3,19,0
14:28:28.630,4.91,8.1,2.1,19,0
14:28:28.640,5.81,9.3,3,19,0
14:28:28.650,6.62,10.5,4.1,0,0
14:28:28.660,6.79,11.6,5.2,0,0
14:28:28.670,6.67,12.6,6.3,0,0
14:28:28.680,6.65,13.6,7.4,0,0
14:28:28.690,6.75,14.6,8.5,0,0
14:28:28.700,6.76,15.5,9.7,0,0
14:28:28.710,6.67,16.5,10.8,0,0
14:28:28.720,6.61,17.5,11.9,0,0
14:28:28.730,6.63,18.5,13,0,0
14:28:28.740,6.6,19.5,14.1,0,0
14:28:28.750,6.53,20.5,15.2,0,0
14:28:28.760,6.53,21.6,16.3,0,0
14:28:28.770,6.66,22.5,17.4,0,0
14:28:28.780,6.65,23.5,18.5,0,0
14:28:28.790,6.61,24.6,19.6,0,0
14:28:28.800,6.6,25.6,20.7,0,0
14:28:28.810,6.64,26.5,21.8,0,0
14:28:28.820,6.65,27.5,22.9,0,0
14:28:28.830,6.62,28.5,24,0,0
14:28:28.840,6.52,29.5,25.1,0,0
14:28:28.850,6.07,30.3,26.2,0,0
14:28:28.860,5.07,30.9,27.1,0,0
14:28:28.870,4.08,31.4,27.8,0,0
14:28:28.880,3.26,31.8,28.5,0,0
14:28:28.890,2.58,32.1,28.9,0,0
14:28:28.900,1.82,32.3,29.3,0,0
14:28:28.910,0.9,32.3,29.5,0,0
14:28:28.920,0,32.2,29.6,0,0
14:28:28.930,-0.16,32,29.6,0,0
14:28:28.940,0,31.7,29.6,0,0
14:28:28.950,0,31.4,29.6,0,0
14:28:28.960,-0.31,31,29.6,0,0
14:28:28.970,-0.27,30.6,29.5,0,0
14:28:28.980,0,30.3,29.6,0,0
14:28:28.990,0.19,30,29.6,0,0
14:28:29.000,0.29,29.7,29.6,0,0
14:28:29.010,0.3,29.6,29.7,0,0
14:28:29.020,0.32,29.5,29.7,0,0
14:28:29.030,0.33,29.5,29.8,0,0
14:28:29.040,0.37,29.5,29.8,0,0
14:28:29.050,0.4,29.6,29.9,0,0
14:28:29.060,0.43,29.7,30,0,0
14:28:29.070,0.31,29.7,30,0,0
14:28:29.080,-1.53,29.2,29.9,0,0
14:28:29.040,-4.62,27.1,29.4,0,0
14:28:29.050,-7.37,23.9,28.4,0,0
14:28:29.060,-8.02,21.4,27.1,0,0
14:28:29.070,-6.71,19.9,25.9,1.1,0
14:28:29.080,-5.72,18.5,24.8,2.1,0
14:28:29.090,-5.8,17.2,23.9,3.1,0
14:28:29.100,-5.61,16.1,22.9,4,0
14:28:29.110,-4.9,15.2,22,4.9,0
14:28:29.120,-4.31,14.5,21.3,5.7,0
14:28:29.130,-4.18,13.7,20.6,6.4,0
14:28:29.140,-4.3,13,19.9,7.1,0
14:28:29.150,-4.63,12.1,19.1,7.8,0
14:28:29.160,-5.04,11.2,18.3,8.6,0
14:28:29.170,-5.01,10.6,17.5,9.5,0
14:28:29.180,-4.51,10.2,16.7,10.2,0
14:28:29.190,-4,9.7,16,11,0
14:28:29.200,-3.76,9.2,15.3,11.6,0
14:28:29.210,-3.52,8.8,14.7,12.2,0
14:28:29.220,-3.22,8.4,14.2,12.8,0
14:28:29.230,-3.05,8.1,13.6,13.3,0
14:28:29.240,-2.87,7.8,13.2,13.8,0
14:28:29.250,-2.58,7.5,12.7,14.2,0
14:28:29.260,-2.42,7.2,12.3,14.7,0
14:28:29.270,-2.35,7,11.9,15.1,0
14:28:29.280,-2.17,6.8,11.5,15.4,0
14:28:29.290,-2,6.7,11.2,15.8,0
14:28:29.300,-1.89,6.5,10.8,16.1,0
14:28:29.310,-1.81,6.4,10.5,16.4,0
14:28:29.320,-1.74,6.2,10.2,16.7,0
14:28:29.330,-1.68,6.1,10,17,0
14:28:29.340,-1.62,5.9,9.7,17.3,0
14:28:29.350,-1.51,5.8,9.4,17.5,0
14:28:29.360,-1.39,5.7,9.2,17.8,0
14:28:29.370,-1.32,5.5,9,18,0
14:28:29.380,-1.23,5.4,8.7,18.2,0
14:28:29.390,-1.12,5.3,8.5,18.4,0
14:28:29.400,-1.08,5.3,8.4,18.6,0
14:28:29.410,-1.07,5.2,8.2,18.8,0
14:28:29.420,-1.02,5.1,8,18.9,0
14:28:29.430,-0.94,5.1,7.8,19.1,0
14:28:29.440,-0.85,5,7.7,19.2,0
14:28:29.450,-0.77,5,7.6,19.4,0
14:28:29.460,-0.76,4.9,7.4,19.5,0
14:28:29.470,-0.78,4.8,7.3,19.6,0
14:28:29.480,-0.69,4.8,7.2,19.8,0
14:28:29.490,-0.58,4.7,7.1,19.9,0
14:28:29.500,-0.62,4.7,7,20,0
14:28:29.510,-0.61,4.7,6.9,20.1,0
14:28:29.520,-0.5,4.6,6.8,20.2,0
14:28:29.530,-0.46,4.6,6.7,20.2,0
14:28:29.540,-0.56,4.6,6.6,20.3,0
14:28:29.550,-0.55,4.5,6.5,20.4,0
14:28:29.560,-0.45,4.5,6.4,20.5,0
14:28:29.570,-0.42,4.5,6.4,20.6,0
14:28:29.580,-0.42,4.5,6.3,20.6,0
14:28:29.590,-0.38,4.5,6.2,20.7,0
14:28:29.600,-0.37,4.4,6.2,20.8,0
14:28:29.610,-0.36,4.4,6.1,20.8,0
14:28:29.620,-0.34,4.4,6.1,20.9,0
14:28:29.630,-0.3,4.4,6,20.9,0
14:28:29.640,-0.32,4.4,6,21,0
14:28:29.650,-0.35,4.4,5.9,21,0
14:28:29.660,-0.32,4.3,5.8,21.1,0
14:28:29.670,-0.3,4.3,5.8,21.1,0
14:28:29.680,-0.24,4.3,5.8,21.2,0
14:28:29.690,-0.19,4.3,5.7,21.2,0
14:28:29.700,-0.18,4.3,5.7,21.2,0
14:28:29.710,-0.2,4.3,5.7,21.2,0
14:28:29.720,-0.23,4.3,5.7,21.2,0
14:28:29.730,-0.29,4.3,5.6,21.3,0
14:28:29.740,-0.29,4.3,5.6,21.3,0
14:28:29.750,-0.19,4.3,5.6,21.3,0
14:28:29.760,-0.12,4.3,5.6,21.3,0
14:28:29.770,-0.17,4.2,5.6,21.3,0
14:28:29.780,-0.19,4.2,5.6,21.3,0
14:28:29.790,-0.17,4.2,5.6,21.3,0
14:28:29.800,-0.15,4.2,5.6,21.3,0
14:28:29.810,-0.12,4.2,5.6,21.3,0
14:28:29.820,-0.09,4.2,5.6,21.3,0
14:28:29.830,0,4.2,5.6,21.3,0
14:28:29.840,0,4.2,5.6,21.3,0
14:28:29.850,0,4.1,5.6,21.3,0
14:28:29.860,0,4.1,5.6,21.3,0
14:28:29.870,0,4.1,5.6,21.3,0
14:28:29.880,0,4.1,5.6,21.3,0
14:28:29.890,-0.17,4.1,5.6,21.3,0
14:28:29.900,0,4.1,5.6,21.3,0
14:28:29.910,0,4.1,5.6,21.3,0
14:28:29.920,0,4.1,5.6,21.3,0
14:28:29.930,-0.19,4.1,5.6,21.3,0
14:28:29.940,-0.1,4.1,5.6,21.3,0
14:28:29.950,0,4.1,5.6,21.3,0
14:28:29.960,0,4.1,5.6,21.3,0
14:28:29.970,0,4.1,5.6,21.3,0
14:28:29.980,0,4.1,5.6,21.3,0
14:28:29.990,0,4.1,5.6,21.3,0
14:28:30.000,0,4.1,5.6,21.3,0
14:28:30.010,0,4.1,5.6,21.3,0
14:28:30.020,0,4.1,5.6,21.3,0
14:28:30.030,0,4.1,5.6,21.3,0
14:28:30.040,0,4.1,5.6,21.3,0
14:28:30.080,0,4.1,5.6,21.3,0
14:28:30.090,0,4.1,5.6,21.3,0
14:28:30.100,0,4.1,5.6,21.3,0
14:28:30.110,0.7,4.3,0,21.3,0
14:28:30.120,2.1,5,0.2,21.3,0
14:28:30.130,2.79,5.6,0.7,21.3,0
14:28:30.140,2.88,6.3,1.1,21.3,0
14:28:30.150,3.58,7.2,1.6,21.3,0
14:28:30.160,4.59,8.2,2.3,21.3,0
14:28:30.170,5.46,9.2,3.2,21.3,0
14:28:30.180,6.2,10.4,4.1,0,0
14:28:30.190,6.72,11.6,5.2,0,0
14:28:30.200,6.87,12.7,6.4,0,0
14:28:30.210,6.68,13.7,7.5,0,0
14:28:30.220,6.6,14.7,8.6,0,0
14:28:30.230,6.67,15.7,9.7,0,0
14:28:30.240,6.67,16.7,10.8,0,0
14:28:30.250,6.66,17.6,11.9,0,0
14:28:30.260,6.74,18.6,13,0,0
14:28:30.270,6.71,19.6,14.2,0,0
14:28:30.280,6.61,20.6,15.3,0,0
14:28:30.290,6.65,21.6,16.4,0,0
14:28:30.300,6.69,22.5,17.5,0,0
14:28:30.310,6.59,23.5,18.6,0,0
14:28:30.320,6.61,24.5,19.7,0,0
14:28:30.330,6.63,25.5,20.8,0,0
14:28:30.340,6.62,26.5,21.9,0,0
14:28:30.350,6.6,27.5,23,0,0
14:28:30.360,6.55,28.5,24.1,0,0
14:28:30.370,6.53,29.5,25.2,0,0
14:28:30.380,6.14,30.4,26.2,0,0
14:28:30.390,5.16,31,27.2,0,0
14:28:30.400,3.96,31.4,27.9,0,0
14:28:30.410,3,31.9,28.5,0,0
14:28:30.420,2.45,32.1,29,0,0
14:28:30.430,1.95,32.2,29.3,0,0
14:28:30.440,1.19,32.2,29.6,0,0
14:28:30.450,0,32.1,29.7,0,0
14:28:30.460,-0.31,31.9,29.6,0,0
14:28:30.470,0.16,31.6,29.7,0,0
14:28:30.480,0.21,31.3,29.7,0,0
14:28:30.490,-0.08,30.9,29.7,0,0
14:28:30.500,-0.19,30.5,29.7,0,0
14:28:30.510,0,30.2,29.7,0,0
14:28:30.520,0,30,29.7,0,0
14:28:30.530,0.19,29.8,29.7,0,0
14:28:30.540,0.25,29.6,29.8,0,0
14:28:30.550,0.27,29.6,29.8,0,0
14:28:30.560,0.31,29.5,29.8,0,0
14:28:30.570,0.36,29.5,29.9,0,0
14:28:30.580,0.45,29.5,30,0,0
14:28:30.590,0.53,29.5,30.1,0,0
14:28:30.600,0.48,29.5,30.1,0,0
14:28:30.610,-0.93,29.2,30.1,0,0
14:28:30.620,-2.86,27.9,29.8,0,0
14:28:30.630,-4.99,25.7,29.1,0,0
14:28:30.640,-6.63,23.1,28.2,0,0
14:28:30.650,-7.82,20.7,26.9,0,0
14:28:30.660,-8.23,18.6,25.6,0,0
14:28:30.670,-7.79,16.9,24.3,1.2,0
14:28:30.680,-6.98,15.6,23,2.5,0
14:28:30.690,-6.3,14.5,21.9,3.6,0
14:28:30.700,-5.89,13.5,20.9,4.6,0
14:28:30.710,-5.62,12.6,20,5.6,0
14:28:30.720,-5.28,11.9,19,6.5,0
